Elapsed time,Abdomen_1
0,-8.8
0.001,-13.9
0.002,-18.7
0.003,-23.4
0.004,-27.9
0.005,-32.801
0.006,-38.101
0.007,-43.801
0.008,-49.301
0.009,-54.001
0.01,-57.501
0.011,-59.501
0.012,-60.401
0.013,-60.501
0.014,-60.301
0.015,-59.701
0.016,-58.901
0.017,-57.601
0.018,-55.701
0.019,-53.001
0.02,-49.401
0.021,-44.901
0.022,-39.601
0.023,-33.701
0.024,-27.8
0.025,-22.2
0.026,-17.2
0.027,-12.9
0.028,-9.4
0.029,-6.6
0.03,-4.5
0.031,-2.7
0.032,-1.1
0.033,0.7
0.034,2.7
0.035,4.6
0.036,6
0.037,6.4
0.038,5.7
0.039,4.3
0.04,2.7
0.041,1.8
0.042,2
0.043,2.9
0.044,4.1
0.045,4.7
0.046,4.5
0.047,3.5
0.048,2.3
0.049,1.4
0.05,1
0.051,1.1
0.052,1.3
0.053,1.3
0.054,1
0.055,0.7
0.056,0.5
0.057,0.6
0.058,0.7
0.059,0.7
0.06,0.4
0.061,-0.1
0.062,-0.7
0.063,-0.9
0.064,-0.5
0.065,0.1
0.066,0.8
0.067,1.1
0.068,1
0.069,0.6
0.07,0.4
0.071,0.8
0.072,1.8
0.073,3
0.074,3.9
0.075,4.2
0.076,3.6
0.077,2.6
0.078,1.5
0.079,0.7
0.08,0.3
0.081,0.2
0.082,0.3
0.083,0.4
0.084,0.4
0.085,0.3
0.086,-0.1
0.087,-0.9
0.088,-1.8
0.089,-2.5
0.09,-2.5
0.091,-1.6
0.092,0
0.093,1.5
0.094,2.3
0.095,2.3
0.096,1.4
0.097,0.3
0.098,-0.4
0.099,-0.7
0.1,-0.6
0.101,-0.4
0.102,-0.3
0.103,-0.5
0.104,-0.7
0.105,-0.8
0.106,-0.8
0.107,-0.6
0.108,-0.3
0.109,-0.2
0.11,-0.1
0.111,-0.1
0.112,0
0.113,0.1
0.114,0.3
0.115,0.5
0.116,0.8
0.117,1.3
0.118,1.7
0.119,2
0.12,2.2
0.121,2.2
0.122,2.2
0.123,2.4
0.124,2.8
0.125,3.5
0.126,4.2
0.127,4.5
0.128,4.5
0.129,4.3
0.13,4.2
0.131,4.6
0.132,5.4
0.133,6.3
0.134,6.6
0.135,5.9
0.136,4.2
0.137,2.3
0.138,0.7
0.139,0
0.14,0.2
0.141,0.7
0.142,0.6
0.143,-0.2
0.144,-1.7
0.145,-3.1
0.146,-4
0.147,-4
0.148,-3.6
0.149,-3.2
0.15,-3.3
0.151,-3.9
0.152,-4.6
0.153,-5.1
0.154,-5.4
0.155,-5.6
0.156,-5.9
0.157,-6.4
0.158,-7.1
0.159,-7.6
0.16,-7.9
0.161,-8.1
0.162,-8.6
0.163,-9.3
0.164,-10.1
0.165,-10.6
0.166,-10.5
0.167,-9.6
0.168,-8.5
0.169,-7.4
0.17,-6.7
0.171,-6.3
0.172,-5.9
0.173,-5
0.174,-3.5
0.175,-1.4
0.176,1.2
0.177,4
0.178,6.9
0.179,9.6
0.18,11.8
0.181,12.9
0.182,12.6
0.183,10.8
0.184,8.1
0.185,5.1
0.186,2.1
0.187,-0.5
0.188,-3.1
0.189,-5.9
0.19,-9.1
0.191,-12.3
0.192,-15.1
0.193,-17
0.194,-17.7
0.195,-17.4
0.196,-16.5
0.197,-15.6
0.198,-14.9
0.199,-14.8
0.2,-14.8
0.201,-14.7
0.202,-14.1
0.203,-12.9
0.204,-11.3
0.205,-9.9
0.206,-9.1
0.207,-9.2
0.208,-10
0.209,-11.1
0.21,-12
0.211,-12.7
0.212,-13.3
0.213,-14
0.214,-15
0.215,-16.2
0.216,-17.2
0.217,-17.8
0.218,-17.9
0.219,-17.7
0.22,-17.5
0.221,-17.4
0.222,-17.4
0.223,-17.3
0.224,-16.8
0.225,-16
0.226,-15.1
0.227,-14.3
0.228,-13.7
0.229,-13.1
0.23,-12.4
0.231,-11.5
0.232,-10.5
0.233,-9.8
0.234,-9.9
0.235,-10.9
0.236,-12.5
0.237,-14.2
0.238,-15.6
0.239,-16.3
0.24,-16.7
0.241,-17
0.242,-17.6
0.243,-18.6
0.244,-19.8
0.245,-20.6
0.246,-21
0.247,-20.8
0.248,-20.2
0.249,-19.5
0.25,-19.1
0.251,-19
0.252,-19.1
0.253,-19.3
0.254,-19.6
0.255,-19.8
0.256,-19.9
0.257,-19.9
0.258,-19.8
0.259,-19.5
0.26,-18.9
0.261,-17.9
0.262,-16.8
0.263,-15.6
0.264,-14.6
0.265,-13.8
0.266,-13.3
0.267,-12.9
0.268,-12.2
0.269,-11.3
0.27,-10.1
0.271,-8.9
0.272,-8.2
0.273,-8
0.274,-8.2
0.275,-8.3
0.276,-7.8
0.277,-6.5
0.278,-4.5
0.279,-2.3
0.28,-0.5
0.281,0.5
0.282,0.8
0.283,0.9
0.284,1
0.285,1.5
0.286,2.2
0.287,2.7
0.288,2.8
0.289,2.4
0.29,1.9
0.291,1.5
0.292,1.5
0.293,2.1
0.294,3.1
0.295,4.3
0.296,5.5
0.297,6.6
0.298,7.4
0.299,7.8
0.3,7.9
0.301,7.8
0.302,7.5
0.303,7.1
0.304,6.6
0.305,6
0.306,5.3
0.307,4.7
0.308,4.1
0.309,3.9
0.31,4
0.311,4.3
0.312,4.6
0.313,4.8
0.314,4.8
0.315,4.9
0.316,5.3
0.317,5.7
0.318,6.1
0.319,6.2
0.32,6
0.321,5.8
0.322,5.6
0.323,5.8
0.324,6.3
0.325,6.7
0.326,7
0.327,7.1
0.328,7
0.329,7.2
0.33,7.7
0.331,8.6
0.332,9.8
0.333,11
0.334,11.9
0.335,12.4
0.336,12.4
0.337,12
0.338,11.3
0.339,10.5
0.34,9.7
0.341,9.1
0.342,8.5
0.343,7.8
0.344,6.9
0.345,6
0.346,5.4
0.347,5.3
0.348,5.8
0.349,6.6
0.35,7.3
0.351,7.6
0.352,7.3
0.353,6.6
0.354,6
0.355,5.7
0.356,5.8
0.357,6.1
0.358,6
0.359,5.3
0.36,4.1
0.361,2.8
0.362,1.9
0.363,1.7
0.364,2
0.365,2.5
0.366,2.8
0.367,3
0.368,3
0.369,3.2
0.37,3.6
0.371,4
0.372,4.1
0.373,3.8
0.374,3.3
0.375,2.9
0.376,3
0.377,3.5
0.378,4.4
0.379,5.2
0.38,5.9
0.381,6.5
0.382,7
0.383,7.5
0.384,7.9
0.385,8
0.386,7.7
0.387,7.2
0.388,6.7
0.389,6.3
0.39,6.2
0.391,6.3
0.392,6.4
0.393,6.4
0.394,6.2
0.395,6
0.396,5.8
0.397,5.6
0.398,5.7
0.399,5.9
0.4,6.3
0.401,6.7
0.402,6.8
0.403,6.5
0.404,5.6
0.405,4.5
0.406,3.5
0.407,3.1
0.408,3.3
0.409,4.1
0.41,5
0.411,5.7
0.412,5.8
0.413,5.6
0.414,5.2
0.415,4.8
0.416,4.6
0.417,4.3
0.418,4
0.419,3.8
0.42,3.9
0.421,4.5
0.422,5.6
0.423,6.9
0.424,8
0.425,8.5
0.426,8.3
0.427,7.7
0.428,7.1
0.429,6.9
0.43,7
0.431,7.2
0.432,7.1
0.433,6.4
0.434,5.3
0.435,4.1
0.436,3.3
0.437,3.2
0.438,3.7
0.439,4.6
0.44,5.6
0.441,6.3
0.442,6.7
0.443,6.7
0.444,6.7
0.445,6.8
0.446,7.1
0.447,7.8
0.448,8.6
0.449,9.5
0.45,10.2
0.451,10.7
0.452,11.1
0.453,11.6
0.454,12.2
0.455,12.9
0.456,13.3
0.457,13
0.458,12.2
0.459,10.8
0.46,9.6
0.461,8.9
0.462,8.7
0.463,9.1
0.464,9.4
0.465,9.3
0.466,8.6
0.467,7.6
0.468,6.7
0.469,6.2
0.47,6.2
0.471,6.4
0.472,6.5
0.473,6.3
0.474,5.7
0.475,4.9
0.476,4.1
0.477,3.5
0.478,3.2
0.479,3.2
0.48,3.4
0.481,3.6
0.482,3.8
0.483,3.8
0.484,3.8
0.485,3.7
0.486,3.6
0.487,3.5
0.488,3.4
0.489,3.1
0.49,2.7
0.491,2.3
0.492,2.1
0.493,2.6
0.494,3.6
0.495,4.8
0.496,5.9
0.497,6.4
0.498,6.1
0.499,5.4
0.5,4.7
0.501,4.3
0.502,4.2
0.503,4.4
0.504,4.3
0.505,3.9
0.506,3.4
0.507,2.9
0.508,2.9
0.509,3.4
0.51,4.2
0.511,5
0.512,5.6
0.513,6
0.514,6.1
0.515,6.1
0.516,6.1
0.517,6.2
0.518,6.4
0.519,6.4
0.52,6.3
0.521,5.7
0.522,4.5
0.523,3
0.524,1.4
0.525,0.3
0.526,0.1
0.527,0.6
0.528,1.6
0.529,2.6
0.53,3.2
0.531,3.4
0.532,3.4
0.533,3.5
0.534,3.7
0.535,3.8
0.536,3.5
0.537,2.8
0.538,1.9
0.539,1.2
0.54,1.1
0.541,1.6
0.542,2.6
0.543,3.6
0.544,4.5
0.545,5.1
0.546,5.7
0.547,6.4
0.548,7.3
0.549,8.5
0.55,9.6
0.551,10.2
0.552,10.1
0.553,9.1
0.554,7.5
0.555,5.9
0.556,4.6
0.557,4
0.558,3.9
0.559,4.1
0.56,4
0.561,3.5
0.562,2.6
0.563,1.7
0.564,1.1
0.565,0.8
0.566,0.6
0.567,0.3
0.568,-0.4
0.569,-1.1
0.57,-1.8
0.571,-1.9
0.572,-1.6
0.573,-1
0.574,-0.4
0.575,-0.1
0.576,-0.3
0.577,-0.9
0.578,-1.7
0.579,-2.4
0.58,-2.8
0.581,-2.9
0.582,-2.6
0.583,-2
0.584,-1.2
0.585,-0.7
0.586,-0.7
0.587,-1
0.588,-1.5
0.589,-1.9
0.59,-1.8
0.591,-1.4
0.592,-0.7
0.593,-0.2
0.594,0
0.595,-0.1
0.596,-0.2
0.597,-0.2
0.598,0.1
0.599,0.4
0.6,0.8
0.601,1
0.602,1.1
0.603,1.3
0.604,1.6
0.605,2
0.606,2.2
0.607,2.4
0.608,2.5
0.609,2.5
0.61,2.6
0.611,2.8
0.612,2.9
0.613,3
0.614,3
0.615,3.1
0.616,3.4
0.617,3.7
0.618,4
0.619,4.1
0.62,3.7
0.621,3
0.622,2.2
0.623,1.7
0.624,1.6
0.625,2
0.626,2.8
0.627,3.6
0.628,4.1
0.629,4.1
0.63,3.5
0.631,2.4
0.632,1.1
0.633,0
0.634,-0.5
0.635,-0.3
0.636,0.5
0.637,1.5
0.638,2.4
0.639,3
0.64,3.5
0.641,4.1
0.642,5.2
0.643,7.1
0.644,10
0.645,13.5
0.646,17.3
0.647,20.5
0.648,22.5
0.649,22.6
0.65,20.9
0.651,18
0.652,14.7
0.653,11.9
0.654,10.2
0.655,9.3
0.656,8.5
0.657,7.2
0.658,5.1
0.659,2.3
0.66,-0.5
0.661,-2.6
0.662,-3.6
0.663,-3.3
0.664,-2.2
0.665,-0.5
0.666,1.3
0.667,3.3
0.668,5.3
0.669,7.2
0.67,8.9
0.671,10
0.672,10.4
0.673,10.1
0.674,9.2
0.675,8.4
0.676,8.2
0.677,9
0.678,10.8
0.679,13.3
0.68,15.9
0.681,17.9
0.682,19
0.683,19.3
0.684,19.2
0.685,19
0.686,18.7
0.687,18.1
0.688,16.7
0.689,14.1
0.69,10.3
0.691,5.6
0.692,0.8
0.693,-3.9
0.694,-8.3
0.695,-12.4
0.696,-16.6
0.697,-21
0.698,-25.6
0.699,-30.4
0.7,-35.201
0.701,-40.101
0.702,-44.801
0.703,-49.501
0.704,-53.801
0.705,-57.501
0.706,-60.301
0.707,-62.001
0.708,-62.601
0.709,-62.201
0.71,-61.101
0.711,-59.701
0.712,-58.001
0.713,-56.101
0.714,-53.801
0.715,-51.001
0.716,-47.301
0.717,-42.701
0.718,-37.301
0.719,-31.5
0.72,-25.6
0.721,-20.2
0.722,-15.6
0.723,-12.1
0.724,-9.7
0.725,-8
0.726,-6.8
0.727,-5.8
0.728,-4.8
0.729,-3.8
0.73,-3
0.731,-2.3
0.732,-2
0.733,-1.9
0.734,-2.2
0.735,-2.4
0.736,-2.6
0.737,-2.6
0.738,-2.3
0.739,-1.8
0.74,-1.1
0.741,-0.6
0.742,-0.1
0.743,0.2
0.744,0.4
0.745,0.7
0.746,1.1
0.747,1.4
0.748,1.7
0.749,1.9
0.75,1.9
0.751,1.9
0.752,2.1
0.753,2.6
0.754,3.4
0.755,4.3
0.756,5.1
0.757,5.5
0.758,5.5
0.759,5.1
0.76,4.6
0.761,4.1
0.762,3.6
0.763,3.1
0.764,2.7
0.765,2.4
0.766,2.4
0.767,2.6
0.768,3
0.769,3.4
0.77,3.5
0.771,3.3
0.772,2.8
0.773,2.3
0.774,2.1
0.775,2.5
0.776,3.3
0.777,4.6
0.778,6
0.779,7.2
0.78,8.2
0.781,8.8
0.782,9
0.783,9
0.784,8.7
0.785,8.2
0.786,7.6
0.787,6.7
0.788,5.7
0.789,4.5
0.79,3.2
0.791,1.9
0.792,0.8
0.793,0.2
0.794,0.2
0.795,0.7
0.796,1.4
0.797,1.9
0.798,1.9
0.799,1.5
0.8,0.9
0.801,0.5
0.802,0.4
0.803,0.7
0.804,1
0.805,0.9
0.806,0.5
0.807,-0.2
0.808,-0.6
0.809,-0.4
0.81,0.5
0.811,1.8
0.812,3.1
0.813,3.8
0.814,3.9
0.815,3.4
0.816,2.7
0.817,2.1
0.818,1.9
0.819,1.9
0.82,2.1
0.821,2.3
0.822,2.3
0.823,2.1
0.824,1.7
0.825,1.4
0.826,1.4
0.827,1.6
0.828,2
0.829,2
0.83,1.5
0.831,0.3
0.832,-1.1
0.833,-2.4
0.834,-2.8
0.835,-2.4
0.836,-1.3
0.837,-0.1
0.838,0.4
0.839,-0.1
0.84,-1.5
0.841,-3.1
0.842,-4.4
0.843,-4.9
0.844,-4.8
0.845,-4.4
0.846,-4.1
0.847,-4.3
0.848,-4.9
0.849,-5.7
0.85,-6.3
0.851,-6.5
0.852,-6.1
0.853,-5.4
0.854,-4.7
0.855,-4.3
0.856,-4.4
0.857,-5.1
0.858,-6.2
0.859,-7
0.86,-7.4
0.861,-7.1
0.862,-6.4
0.863,-5.7
0.864,-5.6
0.865,-6.2
0.866,-7.3
0.867,-8.6
0.868,-9.6
0.869,-9.9
0.87,-9.8
0.871,-9.3
0.872,-8.8
0.873,-8.6
0.874,-8.8
0.875,-9.1
0.876,-9.3
0.877,-9.4
0.878,-9.1
0.879,-8.7
0.88,-8.4
0.881,-8.5
0.882,-9.2
0.883,-10.4
0.884,-11.7
0.885,-12.5
0.886,-12.5
0.887,-11.7
0.888,-10.4
0.889,-9
0.89,-8
0.891,-7.5
0.892,-7.6
0.893,-7.8
0.894,-8.1
0.895,-8.4
0.896,-9
0.897,-10.1
0.898,-11.6
0.899,-13.5
0.9,-15.4
0.901,-16.7
0.902,-17.4
0.903,-17.5
0.904,-17.3
0.905,-17.2
0.906,-17.1
0.907,-17.1
0.908,-17.2
0.909,-17.3
0.91,-17.6
0.911,-18.3
0.912,-19.2
0.913,-20.2
0.914,-20.8
0.915,-20.8
0.916,-20.5
0.917,-20.3
0.918,-20.4
0.919,-21.1
0.92,-22
0.921,-22.5
0.922,-22.4
0.923,-21.7
0.924,-20.7
0.925,-20
0.926,-20
0.927,-20.5
0.928,-21.2
0.929,-21.7
0.93,-21.7
0.931,-21.3
0.932,-20.9
0.933,-20.7
0.934,-21
0.935,-21.8
0.936,-22.7
0.937,-23.4
0.938,-23.5
0.939,-22.9
0.94,-22.1
0.941,-21.5
0.942,-21.4
0.943,-21.7
0.944,-22.3
0.945,-22.7
0.946,-22.6
0.947,-21.9
0.948,-20.9
0.949,-19.9
0.95,-19
0.951,-18.2
0.952,-17.5
0.953,-16.9
0.954,-16.4
0.955,-16.3
0.956,-16.3
0.957,-16.3
0.958,-15.9
0.959,-14.8
0.96,-13.4
0.961,-12
0.962,-10.9
0.963,-10.5
0.964,-10.4
0.965,-10.3
0.966,-9.7
0.967,-8.7
0.968,-7.4
0.969,-6.4
0.97,-5.9
0.971,-6
0.972,-6.4
0.973,-6.5
0.974,-6.1
0.975,-5.2
0.976,-4
0.977,-2.6
0.978,-1.2
0.979,0.2
0.98,1.6
0.981,2.9
0.982,4
0.983,4.8
0.984,5.1
0.985,4.9
0.986,4.3
0.987,3.4
0.988,2.5
0.989,1.8
0.99,1.5
0.991,1.8
0.992,2.5
0.993,3.6
0.994,4.5
0.995,5
0.996,4.8
0.997,4.1
0.998,3.2
0.999,2.5
1,2.1
1.001,2
1.002,2.3
1.003,2.7
1.004,3.3
1.005,4.1
1.006,5
1.007,6.2
1.008,7.4
1.009,8.5
1.01,9.1
1.011,9.2
1.012,8.7
1.013,7.4
1.014,5.7
1.015,3.8
1.016,2.2
1.017,1.2
1.018,0.9
1.019,1.2
1.02,1.7
1.021,2
1.022,2
1.023,1.6
1.024,1.2
1.025,1
1.026,1.1
1.027,1.6
1.028,2.3
1.029,3.2
1.03,4.1
1.031,4.5
1.032,4.5
1.033,4
1.034,3
1.035,1.9
1.036,0.9
1.037,0.1
1.038,-0.3
1.039,-0.4
1.04,-0.3
1.041,0.3
1.042,1.1
1.043,2.1
1.044,3.1
1.045,3.6
1.046,3.7
1.047,3.5
1.048,3.4
1.049,3.7
1.05,4.4
1.051,5.5
1.052,6.4
1.053,6.8
1.054,6.7
1.055,6.3
1.056,5.9
1.057,5.9
1.058,6.3
1.059,6.9
1.06,7.5
1.061,7.9
1.062,8
1.063,7.8
1.064,7.4
1.065,6.9
1.066,6.5
1.067,6.1
1.068,5.8
1.069,5.7
1.07,5.7
1.071,5.9
1.072,6.1
1.073,6.4
1.074,6.8
1.075,7.1
1.076,7.4
1.077,7.5
1.078,7.3
1.079,7
1.08,6.7
1.081,6.6
1.082,6.7
1.083,7.1
1.084,7.5
1.085,7.8
1.086,7.8
1.087,7.6
1.088,7
1.089,6.3
1.09,5.5
1.091,4.8
1.092,4.2
1.093,4
1.094,4
1.095,4.3
1.096,4.4
1.097,4.2
1.098,3.7
1.099,3
1.1,2.4
1.101,2.3
1.102,2.7
1.103,3.5
1.104,4.5
1.105,5.4
1.106,6.2
1.107,7.3
1.108,9
1.109,11.7
1.11,15.2
1.111,19.3
1.112,23.4
1.113,27
1.114,29.6
1.115,30.8
1.116,30.6
1.117,29.1
1.118,26.4
1.119,23.2
1.12,19.8
1.121,16.6
1.122,13.7
1.123,11.1
1.124,8.4
1.125,5.7
1.126,3
1.127,0.6
1.128,-1.3
1.129,-2.4
1.13,-2.6
1.131,-2
1.132,-0.9
1.133,0.7
1.134,2.5
1.135,4
1.136,5
1.137,5.3
1.138,4.9
1.139,4.3
1.14,3.7
1.141,3.4
1.142,3.5
1.143,4
1.144,4.6
1.145,5.1
1.146,5.5
1.147,5.6
1.148,5.4
1.149,5.1
1.15,4.7
1.151,4.4
1.152,4.3
1.153,4.4
1.154,4.6
1.155,4.7
1.156,4.6
1.157,4.5
1.158,4.5
1.159,4.8
1.16,5.5
1.161,6.2
1.162,6.8
1.163,7.1
1.164,7
1.165,6.6
1.166,6.2
1.167,5.9
1.168,5.6
1.169,5.4
1.17,5.1
1.171,4.8
1.172,4.5
1.173,4
1.174,3.4
1.175,2.8
1.176,2.4
1.177,2.3
1.178,2.3
1.179,2.3
1.18,2
1.181,1.5
1.182,0.8
1.183,0.1
1.184,0
1.185,0.4
1.186,1.4
1.187,2.7
1.188,3.8
1.189,4.5
1.19,4.5
1.191,4.1
1.192,3.3
1.193,2.6
1.194,2.2
1.195,2
1.196,2
1.197,2
1.198,1.9
1.199,1.5
1.2,1
1.201,0.5
1.202,0
1.203,-0.2
1.204,0.1
1.205,0.7
1.206,1.8
1.207,3.2
1.208,4.5
1.209,5.6
1.21,6.2
1.211,6.4
1.212,6.6
1.213,7
1.214,7.6
1.215,8.4
1.216,8.9
1.217,8.8
1.218,8.1
1.219,6.8
1.22,5.4
1.221,4.2
1.222,3.3
1.223,2.8
1.224,2.4
1.225,2.2
1.226,2
1.227,2
1.228,2.1
1.229,2.2
1.23,2.4
1.231,2.6
1.232,2.8
1.233,3.1
1.234,3.3
1.235,3.5
1.236,3.5
1.237,3.3
1.238,3.1
1.239,3.1
1.24,3.4
1.241,3.8
1.242,4
1.243,4
1.244,3.5
1.245,2.9
1.246,2.4
1.247,2.3
1.248,2.7
1.249,3.4
1.25,3.9
1.251,4
1.252,3.7
1.253,3.3
1.254,3.1
1.255,3.3
1.256,4
1.257,4.7
1.258,5.1
1.259,5.2
1.26,4.9
1.261,4.6
1.262,4.5
1.263,4.7
1.264,5.1
1.265,5.3
1.266,5.4
1.267,5.4
1.268,5.3
1.269,5.4
1.27,5.5
1.271,5.6
1.272,5.5
1.273,5.2
1.274,4.8
1.275,4.4
1.276,4.3
1.277,4.3
1.278,4.4
1.279,4.7
1.28,5.1
1.281,5.6
1.282,6.2
1.283,6.6
1.284,6.6
1.285,6.4
1.286,5.9
1.287,5.8
1.288,6
1.289,6.5
1.29,7.1
1.291,7.2
1.292,6.8
1.293,6
1.294,5.1
1.295,4.6
1.296,4.5
1.297,4.6
1.298,4.7
1.299,4.5
1.3,4.4
1.301,4.4
1.302,4.7
1.303,5.4
1.304,6
1.305,6.3
1.306,6.2
1.307,5.7
1.308,5
1.309,4.4
1.31,3.8
1.311,3.4
1.312,3.1
1.313,2.8
1.314,2.6
1.315,2.5
1.316,2.6
1.317,2.9
1.318,3.6
1.319,4.7
1.32,6.1
1.321,7.7
1.322,9.1
1.323,10.2
1.324,10.8
1.325,10.9
1.326,10.2
1.327,8.8
1.328,6.8
1.329,4.6
1.33,2.7
1.331,1.6
1.332,1.4
1.333,1.9
1.334,2.3
1.335,2.3
1.336,1.7
1.337,0.9
1.338,0.3
1.339,0.4
1.34,1
1.341,1.7
1.342,2.1
1.343,1.9
1.344,1.2
1.345,0.5
1.346,-0.2
1.347,-0.5
1.348,-0.5
1.349,-0.1
1.35,0.6
1.351,1.4
1.352,2.1
1.353,2.6
1.354,2.6
1.355,2.1
1.356,1.5
1.357,0.9
1.358,0.7
1.359,0.7
1.36,0.7
1.361,0.6
1.362,0.3
1.363,0.1
1.364,0.2
1.365,0.7
1.366,1.3
1.367,1.9
1.368,2.2
1.369,2.2
1.37,2.2
1.371,2.2
1.372,2.6
1.373,3.3
1.374,3.9
1.375,4.4
1.376,4.5
1.377,4.3
1.378,4
1.379,3.5
1.38,2.9
1.381,2.4
1.382,1.8
1.383,1.4
1.384,1.3
1.385,1.3
1.386,1.4
1.387,1.3
1.388,1.1
1.389,0.8
1.39,0.6
1.391,0.7
1.392,1.1
1.393,1.5
1.394,1.8
1.395,1.8
1.396,1.8
1.397,1.8
1.398,2.1
1.399,2.6
1.4,3.1
1.401,3.3
1.402,3.4
1.403,3.5
1.404,3.7
1.405,4.1
1.406,4.5
1.407,4.6
1.408,4.4
1.409,4.1
1.41,4.1
1.411,4.6
1.412,5.6
1.413,7
1.414,8.5
1.415,9.9
1.416,11.4
1.417,13.4
1.418,15.9
1.419,18.8
1.42,21.6
1.421,23.9
1.422,25.1
1.423,25.2
1.424,24.2
1.425,22.5
1.426,20.4
1.427,17.8
1.428,14.8
1.429,11.3
1.43,7.1
1.431,2.5
1.432,-2.5
1.433,-7.6
1.434,-12.3
1.435,-16.5
1.436,-20.2
1.437,-23.7
1.438,-27.6
1.439,-32
1.44,-37.201
1.441,-42.701
1.442,-48.101
1.443,-52.701
1.444,-56.101
1.445,-58.201
1.446,-59.201
1.447,-59.501
1.448,-59.601
1.449,-59.501
1.45,-59.101
1.451,-58.101
1.452,-56.301
1.453,-53.701
1.454,-50.201
1.455,-46.201
1.456,-41.901
1.457,-37.201
1.458,-32.5
1.459,-27.8
1.46,-23.2
1.461,-19.1
1.462,-15.7
1.463,-12.9
1.464,-10.7
1.465,-9.1
1.466,-7.8
1.467,-6.6
1.468,-5.4
1.469,-4.2
1.47,-3.2
1.471,-2.5
1.472,-2.2
1.473,-2.2
1.474,-2.4
1.475,-2.6
1.476,-2.6
1.477,-2.6
1.478,-2.5
1.479,-2.3
1.48,-2
1.481,-1.4
1.482,-0.5
1.483,0.7
1.484,1.8
1.485,2.6
1.486,3
1.487,3
1.488,2.9
1.489,3
1.49,3.3
1.491,3.5
1.492,3.4
1.493,3
1.494,2.3
1.495,1.7
1.496,1.5
1.497,1.7
1.498,2
1.499,2.3
1.5,2.3
1.501,1.9
1.502,1.5
1.503,1.1
1.504,0.8
1.505,0.4
1.506,0.1
1.507,-0.3
1.508,-0.5
1.509,-0.3
1.51,0.2
1.511,1
1.512,1.8
1.513,2.3
1.514,2.2
1.515,1.6
1.516,0.9
1.517,0.4
1.518,0.5
1.519,1.2
1.52,2.2
1.521,2.9
1.522,2.9
1.523,2.2
1.524,1
1.525,-0.2
1.526,-1
1.527,-1
1.528,-0.1
1.529,1.2
1.53,2.6
1.531,3.9
1.532,4.8
1.533,5.6
1.534,6.2
1.535,6.8
1.536,7.3
1.537,7.5
1.538,7.3
1.539,6.5
1.54,5.4
1.541,4.3
1.542,3.7
1.543,3.5
1.544,3.5
1.545,3.5
1.546,3.2
1.547,2.5
1.548,1.8
1.549,1.2
1.55,1
1.551,1.1
1.552,1.1
1.553,0.9
1.554,0.5
1.555,0.1
1.556,-0.3
1.557,-0.5
1.558,-0.8
1.559,-1.5
1.56,-2.5
1.561,-3.7
1.562,-4.8
1.563,-5.3
1.564,-5.3
1.565,-4.8
1.566,-4.1
1.567,-3.3
1.568,-2.2
1.569,-0.9
1.57,0.6
1.571,2.1
1.572,3.4
1.573,4.5
1.574,5.9
1.575,7.8
1.576,10.6
1.577,13.9
1.578,17
1.579,18.8
1.58,18.9
1.581,17.6
1.582,15.5
1.583,13.5
1.584,11.9
1.585,10.5
1.586,8.8
1.587,6.3
1.588,3.1
1.589,-0.2
1.59,-2.8
1.591,-4.5
1.592,-5.4
1.593,-6.1
1.594,-6.9
1.595,-7.9
1.596,-9
1.597,-9.4
1.598,-8.9
1.599,-7.6
1.6,-5.9
1.601,-4.4
1.602,-3.5
1.603,-3.2
1.604,-3.3
1.605,-3.6
1.606,-4
1.607,-4.4
1.608,-5
1.609,-5.6
1.61,-5.9
1.611,-5.7
1.612,-5.1
1.613,-4.4
1.614,-4
1.615,-4.1
1.616,-4.8
1.617,-5.6
1.618,-6.2
1.619,-6.5
1.62,-6.7
1.621,-7
1.622,-7.7
1.623,-8.5
1.624,-9.2
1.625,-9.3
1.626,-8.6
1.627,-7.5
1.628,-6.1
1.629,-5.1
1.63,-4.6
1.631,-4.8
1.632,-5.4
1.633,-6.2
1.634,-7
1.635,-7.6
1.636,-8.2
1.637,-8.8
1.638,-9.4
1.639,-10.1
1.64,-10.6
1.641,-10.7
1.642,-10.5
1.643,-10.1
1.644,-9.7
1.645,-9.6
1.646,-9.9
1.647,-10.5
1.648,-11.3
1.649,-12
1.65,-12.6
1.651,-13.4
1.652,-14.5
1.653,-15.9
1.654,-17.6
1.655,-19
1.656,-19.8
1.657,-19.5
1.658,-18.4
1.659,-17
1.66,-15.9
1.661,-15.7
1.662,-16.5
1.663,-17.9
1.664,-19.5
1.665,-20.5
1.666,-20.9
1.667,-20.8
1.668,-20.6
1.669,-20.8
1.67,-21.6
1.671,-22.8
1.672,-23.9
1.673,-24.7
1.674,-24.8
1.675,-24.2
1.676,-23.4
1.677,-22.5
1.678,-21.7
1.679,-21.2
1.68,-20.9
1.681,-20.7
1.682,-20.5
1.683,-20.3
1.684,-20.1
1.685,-19.7
1.686,-19.2
1.687,-18.4
1.688,-17.6
1.689,-17.1
1.69,-16.9
1.691,-17.1
1.692,-17.6
1.693,-18.1
1.694,-18.5
1.695,-18.8
1.696,-19
1.697,-19.1
1.698,-18.8
1.699,-18.1
1.7,-16.8
1.701,-15.2
1.702,-13.5
1.703,-12.4
1.704,-11.7
1.705,-11.4
1.706,-11
1.707,-10.1
1.708,-8.6
1.709,-6.8
1.71,-5.4
1.711,-4.7
1.712,-4.8
1.713,-5.4
1.714,-5.8
1.715,-5.7
1.716,-5
1.717,-4.2
1.718,-3.6
1.719,-3.5
1.72,-3.6
1.721,-3.6
1.722,-2.9
1.723,-1.5
1.724,0.1
1.725,1.4
1.726,1.9
1.727,1.5
1.728,0.6
1.729,0
1.73,0
1.731,1
1.732,2.8
1.733,4.9
1.734,6.9
1.735,8.6
1.736,10
1.737,11.2
1.738,12
1.739,12.3
1.74,11.8
1.741,10.6
1.742,9.1
1.743,7.7
1.744,6.9
1.745,6.8
1.746,7.2
1.747,7.6
1.748,7.7
1.749,7.4
1.75,6.8
1.751,6.5
1.752,6.6
1.753,7.2
1.754,7.9
1.755,8.5
1.756,8.6
1.757,8.2
1.758,7.7
1.759,7.2
1.76,7.1
1.761,7.4
1.762,7.7
1.763,8
1.764,7.9
1.765,7.5
1.766,6.8
1.767,6.2
1.768,6
1.769,6.3
1.77,7
1.771,7.7
1.772,8
1.773,7.9
1.774,7.3
1.775,6.5
1.776,5.7
1.777,5.2
1.778,5.1
1.779,5.1
1.78,5.2
1.781,5.1
1.782,4.7
1.783,4.1
1.784,3.7
1.785,3.8
1.786,4.3
1.787,5.1
1.788,5.8
1.789,6
1.79,5.8
1.791,5.4
1.792,5.1
1.793,5.2
1.794,5.5
1.795,5.6
1.796,5.6
1.797,5.5
1.798,5.8
1.799,6.7
1.8,8
1.801,9.2
1.802,9.7
1.803,9
1.804,7.6
1.805,6.2
1.806,5.3
1.807,5.2
1.808,5.9
1.809,6.9
1.81,8
1.811,9
1.812,10
1.813,11
1.814,11.9
1.815,12.5
1.816,12.8
1.817,12.6
1.818,12.2
1.819,11.7
1.82,11.1
1.821,10.7
1.822,10.4
1.823,10.5
1.824,10.8
1.825,11.2
1.826,11.4
1.827,11
1.828,10.2
1.829,9.2
1.83,8.5
1.831,8.5
1.832,9.3
1.833,10.5
1.834,11.7
1.835,12.6
1.836,13.2
1.837,13.7
1.838,14.1
1.839,14.5
1.84,14.7
1.841,14.3
1.842,13.2
1.843,11.6
1.844,9.9
1.845,8.3
1.846,7.2
1.847,6.4
1.848,5.9
1.849,5.4
1.85,5.1
1.851,5
1.852,5.3
1.853,5.9
1.854,6.6
1.855,7.1
1.856,7.4
1.857,7.4
1.858,7.5
1.859,7.8
1.86,8.3
1.861,8.8
1.862,8.8
1.863,8.2
1.864,7.3
1.865,6.3
1.866,5.7
1.867,5.7
1.868,6.3
1.869,7
1.87,7.4
1.871,7.4
1.872,6.9
1.873,6.2
1.874,5.5
1.875,5.2
1.876,5.2
1.877,5.6
1.878,6
1.879,6.4
1.88,6.7
1.881,6.9
1.882,7.1
1.883,7.5
1.884,7.9
1.885,8.2
1.886,8.2
1.887,8
1.888,7.4
1.889,6.7
1.89,6
1.891,5.6
1.892,5.6
1.893,6.1
1.894,6.8
1.895,7.5
1.896,7.9
1.897,7.8
1.898,7.1
1.899,6.4
1.9,5.9
1.901,6.2
1.902,7
1.903,8
1.904,8.5
1.905,8.3
1.906,7.3
1.907,6.1
1.908,5.1
1.909,4.8
1.91,5.3
1.911,6.4
1.912,7.7
1.913,8.7
1.914,9.3
1.915,9.4
1.916,9.1
1.917,8.5
1.918,7.9
1.919,7.3
1.92,6.9
1.921,6.7
1.922,6.7
1.923,6.7
1.924,6.7
1.925,6.4
1.926,6
1.927,5.3
1.928,4.6
1.929,4
1.93,3.9
1.931,4.5
1.932,5.8
1.933,7.6
1.934,9.5
1.935,10.9
1.936,11.9
1.937,12.4
1.938,12.9
1.939,13.5
1.94,14
1.941,14
1.942,13.1
1.943,11.3
1.944,9
1.945,7
1.946,5.7
1.947,5.4
1.948,5.7
1.949,5.9
1.95,5.8
1.951,5.1
1.952,4.4
1.953,4
1.954,4.2
1.955,4.8
1.956,5.6
1.957,6.1
1.958,6.2
1.959,5.8
1.96,5.3
1.961,4.8
1.962,4.7
1.963,4.9
1.964,5.3
1.965,5.7
1.966,5.7
1.967,5.3
1.968,4.5
1.969,3.6
1.97,2.8
1.971,2.3
1.972,2.1
1.973,2.3
1.974,2.5
1.975,2.9
1.976,3.2
1.977,3.5
1.978,3.7
1.979,4
1.98,4.3
1.981,4.8
1.982,5.4
1.983,5.8
1.984,5.9
1.985,5.6
1.986,5.1
1.987,4.7
1.988,4.7
1.989,5.1
1.99,5.5
1.991,5.6
1.992,5.1
1.993,4.1
1.994,3.2
1.995,2.9
1.996,3.5
1.997,4.6
1.998,5.8
1.999,6.6
2,6.7
2.001,6.3
2.002,5.7
2.003,5.2
2.004,5
2.005,5
2.006,5.1
2.007,5.3
2.008,5.6
2.009,6.1
2.01,6.5
2.011,6.7
2.012,6.6
2.013,6.2
2.014,5.7
2.015,5.4
2.016,5.5
2.017,5.7
2.018,6
2.019,5.9
2.02,5.5
2.021,4.9
2.022,4.3
2.023,3.7
2.024,3.3
2.025,3
2.026,2.5
2.027,2.2
2.028,2.2
2.029,2.6
2.03,3.4
2.031,4.4
2.032,5.1
2.033,5.4
2.034,5.2
2.035,4.8
2.036,4.4
2.037,4.1
2.038,4
2.039,4.3
2.04,5.1
2.041,7
2.042,9.8
2.043,13.6
2.044,17.3
2.045,20.2
2.046,21.4
2.047,20.8
2.048,18.9
2.049,16.5
2.05,14.4
2.051,12.9
2.052,11.5
2.053,9.6
2.054,6.8
2.055,3.2
2.056,-0.8
2.057,-4.4
2.058,-6.7
2.059,-7.7
2.06,-7.4
2.061,-6.4
2.062,-5.4
2.063,-4.5
2.064,-3.7
2.065,-3
2.066,-2.2
2.067,-1.4
2.068,-0.6
2.069,0.1
2.07,0.7
2.071,1.3
2.072,2
2.073,2.7
2.074,3.4
2.075,3.9
2.076,4.1
2.077,4.1
2.078,4.1
2.079,4.1
2.08,4.2
2.081,4.1
2.082,4
2.083,3.9
2.084,3.9
2.085,4.3
2.086,4.9
2.087,5.6
2.088,5.9
2.089,5.9
2.09,5.4
2.091,4.7
2.092,4.1
2.093,3.6
2.094,3.4
2.095,3.4
2.096,3.5
2.097,3.8
2.098,4.3
2.099,4.7
2.1,4.9
2.101,4.7
2.102,4.3
2.103,3.7
2.104,3.3
2.105,3.1
2.106,3.3
2.107,3.5
2.108,3.6
2.109,3.3
2.11,3
2.111,2.7
2.112,2.6
2.113,2.7
2.114,2.9
2.115,2.8
2.116,2.5
2.117,2.1
2.118,1.8
2.119,1.8
2.12,2.1
2.121,2.5
2.122,2.9
2.123,3.1
2.124,3.4
2.125,3.7
2.126,4.3
2.127,5
2.128,5.5
2.129,5.9
2.13,6.1
2.131,6.5
2.132,7.1
2.133,8.1
2.134,9.2
2.135,9.9
2.136,10.1
2.137,9.8
2.138,9.4
2.139,9.1
2.14,9.3
2.141,9.9
2.142,10.6
2.143,11.4
2.144,12.3
2.145,13.4
2.146,15.1
2.147,17.2
2.148,19.2
2.149,20.5
2.15,20.7
2.151,19.9
2.152,18.3
2.153,16.2
2.154,13.8
2.155,11
2.156,7.6
2.157,3.5
2.158,-1.1
2.159,-6
2.16,-11.1
2.161,-16.4
2.162,-22.1
2.163,-28.2
2.164,-34.301
2.165,-40.001
2.166,-44.701
2.167,-48.601
2.168,-52.001
2.169,-55.401
2.17,-59.001
2.171,-62.801
2.172,-66.001
2.173,-67.901
2.174,-68.201
2.175,-67.001
2.176,-64.701
2.177,-61.901
2.178,-58.901
2.179,-55.801
2.18,-52.301
2.181,-48.201
2.182,-43.401
2.183,-38.001
2.184,-32.3
2.185,-26.7
2.186,-21.5
2.187,-17
2.188,-13.3
2.189,-10.6
2.19,-8.8
2.191,-7.5
2.192,-6.3
2.193,-5.1
2.194,-3.6
2.195,-2.2
2.196,-0.9
2.197,-0.2
2.198,0
2.199,-0.3
2.2,-0.7
2.201,-1.1
2.202,-1.3
2.203,-1.3
2.204,-1.2
2.205,-1.1
2.206,-1.1
2.207,-1.1
2.208,-1.2
2.209,-1.2
2.21,-1.1
2.211,-0.8
2.212,-0.3
2.213,0.5
2.214,1.2
2.215,1.6
2.216,1.6
2.217,1.1
2.218,0.5
2.219,0.2
2.22,0.7
2.221,2
2.222,3.8
2.223,5.5
2.224,6.7
2.225,7.3
2.226,7.3
2.227,7.3
2.228,7.4
2.229,7.5
2.23,7.2
2.231,6.4
2.232,5.2
2.233,3.9
2.234,3
2.235,2.7
2.236,2.7
2.237,2.5
2.238,1.8
2.239,0.5
2.24,-0.7
2.241,-1.5
2.242,-1.5
2.243,-0.8
2.244,0.1
2.245,0.7
2.246,0.8
2.247,0.6
2.248,0.3
2.249,0
2.25,-0.5
2.251,-1.4
2.252,-2.6
2.253,-3.8
2.254,-4.4
2.255,-4
2.256,-2.7
2.257,-0.9
2.258,0.5
2.259,1.1
2.26,0.8
2.261,0.1
2.262,-0.5
2.263,-0.5
2.264,0.2
2.265,1.3
2.266,2.2
2.267,2.6
2.268,2.1
2.269,1
2.27,-0.4
2.271,-1.7
2.272,-2.6
2.273,-3.1
2.274,-3.3
2.275,-3.4
2.276,-3.4
2.277,-3.4
2.278,-3.3
2.279,-3.1
2.28,-2.6
2.281,-1.9
2.282,-1.4
2.283,-1.1
2.284,-1.2
2.285,-1.6
2.286,-2.1
2.287,-2.5
2.288,-2.6
2.289,-2.4
2.29,-2.2
2.291,-2.1
2.292,-2.3
2.293,-2.5
2.294,-2.5
2.295,-2
2.296,-1.5
2.297,-1.1
2.298,-1.3
2.299,-2
2.3,-3
2.301,-3.7
2.302,-3.7
2.303,-3.3
2.304,-2.9
2.305,-3.1
2.306,-3.7
2.307,-4.5
2.308,-4.6
2.309,-4
2.31,-2.6
2.311,-1.2
2.312,-0.4
2.313,-0.5
2.314,-1.3
2.315,-2.3
2.316,-3
2.317,-3.3
2.318,-3.5
2.319,-3.8
2.32,-4.4
2.321,-5.2
2.322,-5.9
2.323,-6.3
2.324,-6.3
2.325,-6.2
2.326,-6
2.327,-5.8
2.328,-5.3
2.329,-4.6
2.33,-3.8
2.331,-3
2.332,-2.6
2.333,-2.6
2.334,-2.6
2.335,-2.5
2.336,-2.2
2.337,-2
2.338,-2.3
2.339,-3.5
2.34,-5.4
2.341,-7.5
2.342,-8.8
2.343,-9.1
2.344,-8.3
2.345,-7.3
2.346,-6.7
2.347,-7
2.348,-8.1
2.349,-9.5
2.35,-10.6
2.351,-11.3
2.352,-11.8
2.353,-12.2
2.354,-12.7
2.355,-13.4
2.356,-14.1
2.357,-14.7
2.358,-15.2
2.359,-15.8
2.36,-16.4
2.361,-16.8
2.362,-16.9
2.363,-16.5
2.364,-15.7
2.365,-14.9
2.366,-14.5
2.367,-14.7
2.368,-15.2
2.369,-15.9
2.37,-16.5
2.371,-16.9
2.372,-17.2
2.373,-17.3
2.374,-17.4
2.375,-17.3
2.376,-17.1
2.377,-17
2.378,-17
2.379,-17.2
2.38,-17.3
2.381,-17.3
2.382,-17.1
2.383,-16.9
2.384,-17
2.385,-17.6
2.386,-18.7
2.387,-19.9
2.388,-20.9
2.389,-21.3
2.39,-21.3
2.391,-21.1
2.392,-21
2.393,-21
2.394,-21.1
2.395,-21
2.396,-20.9
2.397,-20.9
2.398,-21.2
2.399,-21.7
2.4,-22.3
2.401,-22.6
2.402,-22.6
2.403,-22.3
2.404,-21.9
2.405,-21.7
2.406,-21.7
2.407,-21.6
2.408,-21.3
2.409,-20.8
2.41,-20.5
2.411,-20.5
2.412,-21
2.413,-21.7
2.414,-22.1
2.415,-22
2.416,-21.4
2.417,-20.6
2.418,-19.8
2.419,-19.4
2.42,-19.3
2.421,-19.3
2.422,-19
2.423,-18.4
2.424,-17.5
2.425,-16.4
2.426,-15.2
2.427,-14
2.428,-12.9
2.429,-11.8
2.43,-10.8
2.431,-10.1
2.432,-9.7
2.433,-9.5
2.434,-9.2
2.435,-8.6
2.436,-7.3
2.437,-5.4
2.438,-3.1
2.439,-0.9
2.44,0.8
2.441,1.6
2.442,1.7
2.443,1.5
2.444,1.5
2.445,1.8
2.446,2.5
2.447,3
2.448,2.9
2.449,2.2
2.45,1.2
2.451,0.3
2.452,0.2
2.453,0.7
2.454,1.8
2.455,2.8
2.456,3.5
2.457,3.8
2.458,3.8
2.459,3.9
2.46,3.9
2.461,4.1
2.462,4.2
2.463,4.1
2.464,3.9
2.465,3.7
2.466,3.6
2.467,3.7
2.468,3.8
2.469,3.9
2.47,4
2.471,4
2.472,3.9
2.473,3.8
2.474,3.6
2.475,3.4
2.476,3.2
2.477,3.1
2.478,3.2
2.479,3.4
2.48,3.8
2.481,4.2
2.482,4.7
2.483,5.1
2.484,5.2
2.485,5.1
2.486,4.9
2.487,4.7
2.488,4.5
2.489,4.3
2.49,4
2.491,3.6
2.492,3.1
2.493,2.6
2.494,2.1
2.495,1.6
2.496,1.2
2.497,0.9
2.498,0.8
2.499,1.1
2.5,1.7
2.501,2.7
2.502,3.9
2.503,5
2.504,6
2.505,7.2
2.506,8.8
2.507,11.4
2.508,14.8
2.509,18.5
2.51,21.6
2.511,23.5
2.512,23.6
2.513,22
2.514,19.3
2.515,16.2
2.516,13.1
2.517,10.1
2.518,7.2
2.519,4.3
2.52,1.4
2.521,-1.3
2.522,-3.4
2.523,-4.8
2.524,-5.4
2.525,-5.3
2.526,-4.6
2.527,-3.5
2.528,-2.4
2.529,-1.2
2.53,-0.1
2.531,0.9
2.532,1.7
2.533,2.5
2.534,3.4
2.535,4.4
2.536,5.4
2.537,6.3
2.538,6.8
2.539,6.9
2.54,6.7
2.541,6.5
2.542,6.4
2.543,6.5
2.544,6.9
2.545,7.3
2.546,7.8
2.547,8.3
2.548,8.6
2.549,8.9
2.55,8.9
2.551,8.7
2.552,8.3
2.553,7.6
2.554,6.6
2.555,5.4
2.556,4.3
2.557,3.3
2.558,2.7
2.559,2.6
2.56,2.8
2.561,3.1
2.562,3.4
2.563,3.6
2.564,3.6
2.565,3.7
2.566,3.9
2.567,4.3
2.568,4.7
2.569,5
2.57,5.1
2.571,5.2
2.572,5.3
2.573,5.4
2.574,5.4
2.575,5.1
2.576,4.7
2.577,4.1
2.578,3.6
2.579,3.2
2.58,2.9
2.581,2.8
2.582,2.7
2.583,2.6
2.584,2.4
2.585,2.1
2.586,1.7
2.587,1.6
2.588,1.7
2.589,2.2
2.59,3.1
2.591,4
2.592,4.7
2.593,4.8
2.594,4.1
2.595,3
2.596,1.9
2.597,1.3
2.598,1.3
2.599,1.9
2.6,2.6
2.601,3
2.602,3
2.603,2.7
2.604,2.3
2.605,2
2.606,2
2.607,2.1
2.608,2.1
2.609,2.1
2.61,2.1
2.611,2.2
2.612,2.7
2.613,3.3
2.614,3.9
2.615,4.2
2.616,4
2.617,3.5
2.618,2.9
2.619,2.5
2.62,2.3
2.621,2.3
2.622,2.3
2.623,2.2
2.624,2.2
2.625,2.4
2.626,2.6
2.627,2.9
2.628,2.9
2.629,2.7
2.63,2.5
2.631,2.3
2.632,2.5
2.633,2.9
2.634,3.2
2.635,3.3
2.636,3
2.637,2.7
2.638,2.8
2.639,3.5
2.64,4.4
2.641,5.3
2.642,5.6
2.643,5
2.644,3.9
2.645,2.8
2.646,2.2
2.647,2.1
2.648,2.3
2.649,2.7
2.65,2.8
2.651,2.7
2.652,2.6
2.653,2.8
2.654,3.3
2.655,4
2.656,4.7
2.657,5.3
2.658,5.7
2.659,6.1
2.66,6.6
2.661,7.3
2.662,8.1
2.663,8.6
2.664,8.6
2.665,7.8
2.666,6.1
2.667,3.9
2.668,1.7
2.669,-0.2
2.67,-1.2
2.671,-1.5
2.672,-1.2
2.673,-0.7
2.674,-0.2
2.675,0.2
2.676,0.7
2.677,1.3
2.678,1.9
2.679,2.3
2.68,2.2
2.681,1.8
2.682,1.4
2.683,1.1
2.684,1.2
2.685,1.5
2.686,1.6
2.687,1.2
2.688,0.5
2.689,-0.4
2.69,-1
2.691,-1.3
2.692,-1.4
2.693,-1.6
2.694,-2.1
2.695,-2.5
2.696,-2.5
2.697,-2
2.698,-1
2.699,0.2
2.7,1
2.701,1.2
2.702,0.8
2.703,0.2
2.704,-0.2
2.705,-0.2
2.706,0.1
2.707,0.7
2.708,1.3
2.709,1.8
2.71,2.1
2.711,2
2.712,1.5
2.713,0.8
2.714,0.1
2.715,-0.4
2.716,-0.3
2.717,0.1
2.718,0.8
2.719,1.3
2.72,1.7
2.721,1.8
2.722,2
2.723,2.3
2.724,2.6
2.725,2.4
2.726,1.4
2.727,-0.2
2.728,-2
2.729,-3.2
2.73,-3.2
2.731,-2
2.732,-0.2
2.733,1.2
2.734,1.8
2.735,1.5
2.736,0.8
2.737,0
2.738,-0.3
2.739,-0.4
2.74,-0.5
2.741,-0.8
2.742,-1.4
2.743,-1.9
2.744,-2.2
2.745,-2.2
2.746,-2
2.747,-1.9
2.748,-1.8
2.749,-1.8
2.75,-1.6
2.751,-1
2.752,-0.2
2.753,0.9
2.754,2.1
2.755,3.1
2.756,3.9
2.757,4
2.758,3.5
2.759,2.2
2.76,0.4
2.761,-1.5
2.762,-3
2.763,-3.8
2.764,-3.8
2.765,-3.4
2.766,-3
2.767,-2.7
2.768,-2.6
2.769,-2.5
2.77,-2.3
2.771,-2
2.772,-1.9
2.773,-2
2.774,-2.3
2.775,-2.7
2.776,-3.2
2.777,-3.4
2.778,-3.6
2.779,-3.6
2.78,-3.5
2.781,-3.3
2.782,-2.9
2.783,-2.4
2.784,-1.8
2.785,-1.3
2.786,-1
2.787,-1
2.788,-1.2
2.789,-1.7
2.79,-2.4
2.791,-3.1
2.792,-3.7
2.793,-4
2.794,-3.9
2.795,-3.4
2.796,-2.7
2.797,-1.9
2.798,-1.2
2.799,-0.8
2.8,-0.5
2.801,-0.3
2.802,-0.3
2.803,-0.3
2.804,-0.4
2.805,-0.5
2.806,-0.5
2.807,-0.1
2.808,0.4
2.809,1
2.81,1.3
2.811,1.1
2.812,0.5
2.813,-0.5
2.814,-1.3
2.815,-1.8
2.816,-1.7
2.817,-1.3
2.818,-0.7
2.819,-0.2
2.82,0
2.821,-0.1
2.822,-0.5
2.823,-1.1
2.824,-1.8
2.825,-2.5
2.826,-3
2.827,-3.2
2.828,-3.2
2.829,-3
2.83,-2.8
2.831,-2.7
2.832,-2.7
2.833,-2.6
2.834,-2.6
2.835,-2.5
2.836,-2.4
2.837,-2
2.838,-1.3
2.839,-0.1
2.84,1.5
2.841,3.5
2.842,5.4
2.843,7.1
2.844,8.6
2.845,9.8
2.846,11.2
2.847,12.8
2.848,14.4
2.849,15.5
2.85,15.9
2.851,15.4
2.852,14
2.853,12
2.854,9.6
2.855,6.8
2.856,3.7
2.857,0
2.858,-4.1
2.859,-8.8
2.86,-13.8
2.861,-18.9
2.862,-24
2.863,-29.2
2.864,-34.301
2.865,-39.401
2.866,-44.201
2.867,-48.801
2.868,-53.001
2.869,-56.601
2.87,-59.501
2.871,-61.701
2.872,-63.001
2.873,-63.401
2.874,-62.901
2.875,-61.601
2.876,-59.801
2.877,-57.801
2.878,-55.801
2.879,-54.101
2.88,-52.401
2.881,-50.401
2.882,-47.601
2.883,-43.901
2.884,-39.401
2.885,-34.401
2.886,-29.5
2.887,-25.1
2.888,-21.5
2.889,-18.7
2.89,-16.6
2.891,-14.9
2.892,-13.3
2.893,-11.7
2.894,-10.1
2.895,-8.8
2.896,-8
2.897,-7.8
2.898,-8
2.899,-8.2
2.9,-8.1
2.901,-7.4
2.902,-6.5
2.903,-5.6
2.904,-5.1
2.905,-5.1
2.906,-5.4
2.907,-5.7
2.908,-5.7
2.909,-5.3
2.91,-4.7
2.911,-4
2.912,-3.3
2.913,-2.8
2.914,-2.5
2.915,-2.4
2.916,-2.6
2.917,-2.8
2.918,-2.9
2.919,-2.8
2.92,-2.4
2.921,-2.1
2.922,-1.9
2.923,-2.1
2.924,-2.5
2.925,-3.1
2.926,-3.5
2.927,-3.6
2.928,-3.4
2.929,-3.1
2.93,-2.7
2.931,-2.4
2.932,-2
2.933,-1.5
2.934,-1
2.935,-0.5
2.936,-0.2
2.937,-0.3
2.938,-0.7
2.939,-1.1
2.94,-1.5
2.941,-1.5
2.942,-1.2
2.943,-1
2.944,-1
2.945,-1.3
2.946,-1.8
2.947,-2
2.948,-1.8
2.949,-1.1
2.95,-0.2
2.951,0.5
2.952,0.9
2.953,0.8
2.954,0.5
2.955,0.1
2.956,0
2.957,0
2.958,0
2.959,-0.4
2.96,-1.3
2.961,-2.6
2.962,-4
2.963,-5.1
2.964,-5.6
2.965,-5.8
2.966,-5.7
2.967,-5.5
2.968,-5.1
2.969,-4.6
2.97,-3.6
2.971,-2.2
2.972,-0.3
2.973,2
2.974,4.5
2.975,7.4
2.976,10.5
2.977,13.7
2.978,16.6
2.979,18.7
2.98,19.6
2.981,19.2
2.982,17.7
2.983,15.5
2.984,13
2.985,10.5
2.986,8
2.987,5.4
2.988,2.7
2.989,0
2.99,-2.3
2.991,-3.8
2.992,-4.4
2.993,-4.1
2.994,-3.3
2.995,-2.4
2.996,-1.5
2.997,-0.7
2.998,0.1
2.999,0.8
3,1.3
3.001,1.4
3.002,0.9
3.003,-0.3
3.004,-1.6
3.005,-2.7
3.006,-3.1
3.007,-2.9
3.008,-2.4
3.009,-2
3.01,-2
3.011,-2.6
3.012,-3.4
3.013,-4.3
3.014,-5.1
3.015,-5.9
3.016,-6.6
3.017,-7
3.018,-7.2
3.019,-7
3.02,-6.6
3.021,-6.4
3.022,-6.5
3.023,-7
3.024,-7.7
3.025,-8.4
3.026,-9
3.027,-9.3
3.028,-9.7
3.029,-10.2
3.03,-10.6
3.031,-11
3.032,-11.1
3.033,-11.1
3.034,-11.1
3.035,-11.4
3.036,-11.8
3.037,-12.1
3.038,-11.9
3.039,-11.1
3.04,-10.2
3.041,-9.4
3.042,-9.3
3.043,-9.7
3.044,-10.2
3.045,-10.6
3.046,-10.4
3.047,-9.9
3.048,-9.4
3.049,-9.3
3.05,-9.8
3.051,-10.6
3.052,-11.2
3.053,-11.3
3.054,-10.8
3.055,-9.9
3.056,-9
3.057,-8.8
3.058,-9.3
3.059,-10.4
3.06,-11.6
3.061,-12.5
3.062,-12.8
3.063,-12.5
3.064,-12
3.065,-11.7
3.066,-11.8
3.067,-12.2
3.068,-12.9
3.069,-13.5
3.07,-13.9
3.071,-13.9
3.072,-13.8
3.073,-13.6
3.074,-13.4
3.075,-13.1
3.076,-12.7
3.077,-12.3
3.078,-12
3.079,-12
3.08,-12.4
3.081,-13.2
3.082,-14.3
3.083,-15.3
3.084,-16
3.085,-16.5
3.086,-16.7
3.087,-17
3.088,-17.4
3.089,-17.9
3.09,-18.4
3.091,-18.6
3.092,-18.4
3.093,-17.9
3.094,-17.3
3.095,-17.1
3.096,-17.3
3.097,-18.1
3.098,-19
3.099,-19.7
3.1,-19.8
3.101,-19.3
3.102,-18.4
3.103,-17.2
3.104,-16.2
3.105,-15.4
3.106,-14.8
3.107,-14.5
3.108,-14.4
3.109,-14.5
3.11,-14.8
3.111,-15.3
3.112,-15.8
3.113,-16.2
3.114,-16.6
3.115,-16.9
3.116,-17.2
3.117,-17.6
3.118,-18
3.119,-18.1
3.12,-17.9
3.121,-17.2
3.122,-16.2
3.123,-15.3
3.124,-14.7
3.125,-14.6
3.126,-14.9
3.127,-15.5
3.128,-16
3.129,-16.1
3.13,-15.9
3.131,-15.4
3.132,-14.8
3.133,-14.1
3.134,-13.2
3.135,-12.3
3.136,-11.2
3.137,-9.9
3.138,-8.6
3.139,-7
3.14,-5.2
3.141,-3.4
3.142,-1.8
3.143,-1
3.144,-0.9
3.145,-1.5
3.146,-2.2
3.147,-2.4
3.148,-2
3.149,-1.1
3.15,-0.5
3.151,-0.4
3.152,-1
3.153,-1.8
3.154,-2.3
3.155,-2.1
3.156,-1.5
3.157,-0.9
3.158,-0.7
3.159,-0.8
3.16,-1
3.161,-0.5
3.162,0.7
3.163,2.4
3.164,4.1
3.165,5.1
3.166,5.1
3.167,4.4
3.168,3.5
3.169,3
3.17,3.1
3.171,3.7
3.172,4.6
3.173,5.6
3.174,6.3
3.175,6.8
3.176,7
3.177,6.9
3.178,6.6
3.179,6.1
3.18,5.6
3.181,4.9
3.182,4.4
3.183,3.9
3.184,3.7
3.185,3.7
3.186,4
3.187,4.4
3.188,4.6
3.189,4.6
3.19,4.2
3.191,3.8
3.192,3.5
3.193,3.5
3.194,3.8
3.195,4.3
3.196,4.7
3.197,4.8
3.198,4.6
3.199,4.1
3.2,3.8
3.201,3.7
3.202,3.9
3.203,4.4
3.204,4.9
3.205,5.1
3.206,4.8
3.207,4
3.208,3.1
3.209,2.3
3.21,2
3.211,2.1
3.212,2.5
3.213,3
3.214,3.3
3.215,3.4
3.216,3.4
3.217,3.4
3.218,3.3
3.219,3.1
3.22,3
3.221,3.1
3.222,3.7
3.223,4.8
3.224,6.4
3.225,7.9
3.226,9
3.227,9.5
3.228,9.3
3.229,8.8
3.23,8.1
3.231,7.6
3.232,7.1
3.233,6.6
3.234,6
3.235,5.4
3.236,4.8
3.237,4.3
3.238,3.8
3.239,3.5
3.24,3.2
3.241,3.1
3.242,3.1
3.243,3.2
3.244,3.4
3.245,3.3
3.246,3
3.247,2.4
3.248,1.8
3.249,1.3
3.25,1.1
3.251,0.9
3.252,0.8
3.253,0.7
3.254,0.6
3.255,0.7
3.256,1.2
3.257,2.1
3.258,3.1
3.259,3.9
3.26,4.3
3.261,4.2
3.262,4
3.263,3.7
3.264,3.7
3.265,3.9
3.266,4.2
3.267,4.2
3.268,4
3.269,3.5
3.27,3
3.271,2.7
3.272,2.5
3.273,2.5
3.274,2.5
3.275,2.3
3.276,2
3.277,1.6
3.278,1.6
3.279,1.8
3.28,2.4
3.281,3
3.282,3.5
3.283,3.8
3.284,4.1
3.285,4.5
3.286,5
3.287,5.7
3.288,6.3
3.289,6.7
3.29,6.7
3.291,6.5
3.292,6.2
3.293,5.8
3.294,5.4
3.295,5
3.296,4.7
3.297,4.4
3.298,4.2
3.299,4.2
3.3,4.5
3.301,4.8
3.302,5.2
3.303,5.6
3.304,5.8
3.305,6
3.306,6
3.307,5.9
3.308,5.9
3.309,6
3.31,6.4
3.311,7
3.312,7.5
3.313,7.8
3.314,7.6
3.315,7.1
3.316,6.6
3.317,6.4
3.318,6.7
3.319,7.5
3.32,8.3
3.321,8.9
3.322,8.9
3.323,8.4
3.324,7.8
3.325,7.4
3.326,7.1
3.327,7
3.328,6.6
3.329,6
3.33,5.4
3.331,5.1
3.332,5.3
3.333,6.3
3.334,7.6
3.335,9.1
3.336,10.4
3.337,11.5
3.338,12.3
3.339,12.7
3.34,12.6
3.341,11.7
3.342,10
3.343,7.8
3.344,5.7
3.345,4.5
3.346,4.2
3.347,4.6
3.348,5.1
3.349,5.2
3.35,4.7
3.351,3.8
3.352,3.1
3.353,2.9
3.354,3.1
3.355,3.6
3.356,3.9
3.357,3.9
3.358,3.7
3.359,3.3
3.36,2.8
3.361,2.4
3.362,2
3.363,1.8
3.364,1.9
3.365,2.4
3.366,3.1
3.367,3.6
3.368,3.9
3.369,3.9
3.37,3.6
3.371,3.5
3.372,3.5
3.373,3.7
3.374,3.9
3.375,4
3.376,4.1
3.377,4.3
3.378,4.6
3.379,5
3.38,5.2
3.381,5.2
3.382,4.8
3.383,4.4
3.384,4.1
3.385,4.2
3.386,4.7
3.387,5.2
3.388,5.5
3.389,5.4
3.39,5
3.391,4.3
3.392,3.6
3.393,2.9
3.394,2.2
3.395,1.6
3.396,0.9
3.397,0.4
3.398,0.1
3.399,0.1
3.4,0.3
3.401,0.8
3.402,1.1
3.403,1.2
3.404,1.1
3.405,1.1
3.406,1.2
3.407,1.7
3.408,2.4
3.409,3.2
3.41,3.8
3.411,4.3
3.412,4.6
3.413,4.9
3.414,5.1
3.415,5.3
3.416,5.4
3.417,5.3
3.418,5.1
3.419,4.9
3.42,4.7
3.421,4.7
3.422,4.7
3.423,4.8
3.424,4.8
3.425,4.7
3.426,4.2
3.427,3.5
3.428,2.5
3.429,1.5
3.43,0.5
3.431,-0.1
3.432,-0.3
3.433,-0.2
3.434,0.2
3.435,0.5
3.436,1
3.437,1.6
3.438,2.5
3.439,3.5
3.44,4.5
3.441,5.3
3.442,5.9
3.443,6.8
3.444,8.7
3.445,11.8
3.446,15.8
3.447,19.7
3.448,22.3
3.449,22.7
3.45,21.2
3.451,18.5
3.452,15.8
3.453,13.7
3.454,12
3.455,10.3
3.456,8
3.457,4.9
3.458,1.7
3.459,-0.7
3.46,-1.7
3.461,-1.4
3.462,-0.3
3.463,0.8
3.464,1.5
3.465,1.7
3.466,1.8
3.467,2.1
3.468,2.6
3.469,3.1
3.47,3.4
3.471,3.3
3.472,3
3.473,2.8
3.474,3.1
3.475,3.8
3.476,4.7
3.477,5.4
3.478,5.8
3.479,5.7
3.48,5.3
3.481,4.8
3.482,4.5
3.483,4.2
3.484,4.1
3.485,4
3.486,4
3.487,4
3.488,3.9
3.489,3.8
3.49,3.5
3.491,3.2
3.492,3.1
3.493,3.1
3.494,3.4
3.495,3.8
3.496,4.3
3.497,4.8
3.498,5.3
3.499,5.8
3.5,6.5
3.501,7.2
3.502,7.6
3.503,7.4
3.504,6.6
3.505,5.4
3.506,4.1
3.507,3.4
3.508,3.3
3.509,3.9
3.51,4.6
3.511,5.1
3.512,5
3.513,4.4
3.514,3.7
3.515,3.3
3.516,3.4
3.517,4.1
3.518,5
3.519,5.7
3.52,6.1
3.521,6.1
3.522,5.9
3.523,5.9
3.524,6.1
3.525,6.4
3.526,6.6
3.527,6.5
3.528,6.1
3.529,5.7
3.53,5.4
3.531,5.4
3.532,5.6
3.533,5.7
3.534,5.5
3.535,5.2
3.536,4.8
3.537,4.8
3.538,5.5
3.539,6.7
3.54,8.1
3.541,9.4
3.542,10.1
3.543,10.2
3.544,10
3.545,10
3.546,10.7
3.547,12.4
3.548,15.1
3.549,18.3
3.55,21.3
3.551,23.5
3.552,24.5
3.553,24.5
3.554,23.8
3.555,22.9
3.556,22.3
3.557,21.9
3.558,21.4
3.559,20.4
3.56,18.6
3.561,15.8
3.562,12.2
3.563,8.1
3.564,3.8
3.565,-0.7
3.566,-5.1
3.567,-9.6
3.568,-14.1
3.569,-18.6
3.57,-22.9
3.571,-27
3.572,-30.8
3.573,-34.401
3.574,-38.101
3.575,-41.701
3.576,-45.301
3.577,-48.601
3.578,-51.501
3.579,-53.801
3.58,-55.401
3.581,-56.501
3.582,-56.801
3.583,-56.301
3.584,-55.001
3.585,-52.701
3.586,-49.801
3.587,-46.301
3.588,-42.501
3.589,-38.301
3.59,-33.801
3.591,-28.7
3.592,-23.3
3.593,-18.2
3.594,-14
3.595,-11.3
3.596,-10
3.597,-9.6
3.598,-9.3
3.599,-8.4
3.6,-6.9
3.601,-5.1
3.602,-3.5
3.603,-2.6
3.604,-2.5
3.605,-2.7
3.606,-2.8
3.607,-2.7
3.608,-2.2
3.609,-1.8
3.61,-1.6
3.611,-1.7
3.612,-1.8
3.613,-1.8
3.614,-1.4
3.615,-0.7
3.616,0.2
3.617,1.1
3.618,1.8
3.619,2.2
3.62,2.2
3.621,2.1
3.622,2
3.623,2.1
3.624,2.5
3.625,3.1
3.626,3.7
3.627,4.3
3.628,4.6
3.629,4.6
3.63,4.7
3.631,4.9
3.632,5.4
3.633,5.9
3.634,6.3
3.635,6.1
3.636,5.6
3.637,4.9
3.638,4.4
3.639,4.4
3.64,5
3.641,5.9
3.642,6.7
3.643,7.3
3.644,7.3
3.645,6.9
3.646,6.3
3.647,6
3.648,5.9
3.649,6.2
3.65,6.6
3.651,6.7
3.652,6.5
3.653,6
3.654,5.3
3.655,4.7
3.656,4.4
3.657,4.3
3.658,4.4
3.659,4.7
3.66,5.1
3.661,5.6
3.662,5.8
3.663,5.6
3.664,4.9
3.665,3.8
3.666,2.9
3.667,2.5
3.668,3
3.669,4
3.67,5.2
3.671,5.9
3.672,5.8
3.673,5.2
3.674,4.5
3.675,4.2
3.676,4.3
3.677,4.9
3.678,5.5
3.679,5.7
3.68,5.6
3.681,5.3
3.682,5.2
3.683,5.4
3.684,6.1
3.685,7
3.686,7.6
3.687,7.9
3.688,7.7
3.689,7.5
3.69,7.5
3.691,7.9
3.692,8.7
3.693,9.6
3.694,10.2
3.695,10.5
3.696,10.5
3.697,10.4
3.698,10.5
3.699,10.5
3.7,10.4
3.701,10.1
3.702,9.3
3.703,8.4
3.704,7.5
3.705,6.7
3.706,6.2
3.707,5.9
3.708,5.8
3.709,5.6
3.71,5.4
3.711,5.1
3.712,4.8
3.713,4.4
3.714,4.2
3.715,4.2
3.716,4.5
3.717,4.9
3.718,5.1
3.719,4.9
3.72,4.1
3.721,3
3.722,1.9
3.723,1.3
3.724,1.4
3.725,2.1
3.726,2.9
3.727,3.4
3.728,3.2
3.729,2.4
3.73,1.1
3.731,0
3.732,-0.6
3.733,-0.7
3.734,-0.3
3.735,0.1
3.736,0.2
3.737,-0.1
3.738,-0.5
3.739,-0.8
3.74,-0.8
3.741,-0.5
3.742,-0.1
3.743,0.3
3.744,0.7
3.745,1
3.746,1
3.747,0.8
3.748,0
3.749,-1.3
3.75,-2.9
3.751,-4.2
3.752,-5.1
3.753,-5.2
3.754,-4.9
3.755,-4.4
3.756,-4.2
3.757,-4.3
3.758,-4.8
3.759,-5.4
3.76,-5.9
3.761,-6.3
3.762,-6.3
3.763,-6.2
3.764,-6.1
3.765,-6
3.766,-6.1
3.767,-6.4
3.768,-6.5
3.769,-6.3
3.77,-5.7
3.771,-5
3.772,-4.6
3.773,-4.9
3.774,-6.1
3.775,-7.8
3.776,-9.5
3.777,-10.6
3.778,-10.7
3.779,-10
3.78,-9
3.781,-8
3.782,-7.4
3.783,-7.1
3.784,-7.1
3.785,-7.2
3.786,-7.5
3.787,-8.1
3.788,-8.8
3.789,-9.4
3.79,-9.8
3.791,-9.9
3.792,-9.7
3.793,-9.2
3.794,-8.8
3.795,-8.7
3.796,-8.9
3.797,-9.5
3.798,-10.4
3.799,-11.2
3.8,-12
3.801,-12.6
3.802,-13.1
3.803,-13.6
3.804,-14
3.805,-14.3
3.806,-14.4
3.807,-14.1
3.808,-13.5
3.809,-12.8
3.81,-12.2
3.811,-11.6
3.812,-11.1
3.813,-10.5
3.814,-10
3.815,-9.8
3.816,-10.2
3.817,-11.5
3.818,-13.4
3.819,-15.2
3.82,-16.5
3.821,-16.7
3.822,-16.1
3.823,-15.2
3.824,-14.5
3.825,-14.3
3.826,-14.6
3.827,-14.9
3.828,-14.7
3.829,-13.9
3.83,-12.7
3.831,-11.4
3.832,-10.4
3.833,-9.8
3.834,-9.5
3.835,-9.4
3.836,-9.3
3.837,-9.1
3.838,-8.7
3.839,-8.3
3.84,-7.7
3.841,-6.9
3.842,-5.9
3.843,-4.8
3.844,-3.7
3.845,-2.7
3.846,-1.8
3.847,-1
3.848,-0.4
3.849,0.1
3.85,0.4
3.851,0.5
3.852,0.7
3.853,0.9
3.854,1.4
3.855,2.1
3.856,2.9
3.857,3.6
3.858,4.2
3.859,4.7
3.86,5.1
3.861,5.5
3.862,5.9
3.863,6.4
3.864,6.6
3.865,6.6
3.866,6.4
3.867,6.1
3.868,6.1
3.869,6.6
3.87,7.5
3.871,8.5
3.872,9.2
3.873,9.3
3.874,8.8
3.875,8.2
3.876,7.8
3.877,7.9
3.878,8.6
3.879,9.7
3.88,10.9
3.881,11.8
3.882,12.3
3.883,12.3
3.884,11.9
3.885,11.3
3.886,10.7
3.887,10.3
3.888,10.4
3.889,11
3.89,11.8
3.891,12.6
3.892,12.9
3.893,12.6
3.894,11.7
3.895,10.6
3.896,9.6
3.897,9
3.898,8.8
3.899,8.8
3.9,9
3.901,9.4
3.902,9.9
3.903,10.5
3.904,11.2
3.905,11.7
3.906,11.9
3.907,11.8
3.908,11.6
3.909,11.6
3.91,12.2
3.911,13.8
3.912,16.5
3.913,19.9
3.914,23.6
3.915,27
3.916,29.4
3.917,30.7
3.918,30.8
3.919,30
3.92,28.8
3.921,27.4
3.922,25.6
3.923,23.5
3.924,21.1
3.925,18.6
3.926,16.4
3.927,14.7
3.928,13.7
3.929,13.2
3.93,12.8
3.931,12.6
3.932,12.4
3.933,12.4
3.934,12.7
3.935,13.2
3.936,13.6
3.937,13.7
3.938,13.5
3.939,13.2
3.94,13.2
3.941,13.6
3.942,14.3
3.943,14.8
3.944,14.8
3.945,14.2
3.946,13.2
3.947,12.3
3.948,11.9
3.949,12
3.95,12.5
3.951,12.8
3.952,12.7
3.953,12
3.954,11.2
3.955,10.6
3.956,10.3
3.957,10.4
3.958,10.7
3.959,10.7
3.96,10.3
3.961,9.8
3.962,9.4
3.963,9.4
3.964,9.8
3.965,10.4
3.966,10.9
3.967,11
3.968,10.6
3.969,9.8
3.97,9
3.971,8.6
3.972,8.7
3.973,9.2
3.974,10
3.975,10.6
3.976,10.8
3.977,10.4
3.978,9.7
3.979,9
3.98,8.5
3.981,8.6
3.982,9.3
3.983,10.3
3.984,11.2
3.985,11.7
3.986,11.7
3.987,11.3
3.988,11
3.989,11
3.99,11.6
3.991,12.5
3.992,13.4
3.993,13.8
3.994,13.6
3.995,12.9
3.996,12
3.997,11.2
3.998,10.7
3.999,10.5
4,10.7
4.001,11
4.002,11.5
4.003,12
4.004,12.5
4.005,12.7
4.006,12.6
4.007,12.3
4.008,11.8
4.009,11.5
4.01,11.4
4.011,11.4
4.012,11.5
4.013,11.5
4.014,11.6
4.015,11.8
4.016,12.3
4.017,12.9
4.018,13.5
4.019,13.7
4.02,13.5
4.021,13
4.022,12.6
4.023,12.5
4.024,12.8
4.025,13.2
4.026,13.2
4.027,12.8
4.028,12.1
4.029,11.4
4.03,11.4
4.031,11.9
4.032,12.8
4.033,13.6
4.034,13.8
4.035,13.5
4.036,12.8
4.037,12.2
4.038,11.8
4.039,11.7
4.04,11.7
4.041,11.6
4.042,11.6
4.043,11.8
4.044,12.1
4.045,12.6
4.046,13.1
4.047,13.4
4.048,13.6
4.049,13.7
4.05,13.8
4.051,13.9
4.052,14
4.053,14
4.054,13.7
4.055,13.4
4.056,13.2
4.057,13.2
4.058,13.2
4.059,13.4
4.06,13.6
4.061,14
4.062,14.6
4.063,15.3
4.064,16
4.065,16.6
4.066,16.8
4.067,17
4.068,17.2
4.069,17.4
4.07,17.6
4.071,17.3
4.072,16.4
4.073,15.1
4.074,13.6
4.075,12.4
4.076,11.8
4.077,11.7
4.078,11.6
4.079,11.1
4.08,10.1
4.081,8.8
4.082,7.6
4.083,6.8
4.084,6.8
4.085,7.5
4.086,8.4
4.087,9.2
4.088,9.7
4.089,9.7
4.09,9.6
4.091,9.6
4.092,9.9
4.093,10.4
4.094,10.9
4.095,11.1
4.096,10.9
4.097,10.4
4.098,10.1
4.099,10.2
4.1,10.7
4.101,11.6
4.102,12.3
4.103,12.6
4.104,12.4
4.105,12.2
4.106,12.1
4.107,12.5
4.108,13.2
4.109,14
4.11,14.5
4.111,14.7
4.112,14.7
4.113,14.7
4.114,14.7
4.115,14.7
4.116,14.5
4.117,14
4.118,13.3
4.119,12.8
4.12,12.6
4.121,12.8
4.122,13.1
4.123,13.3
4.124,13
4.125,12.5
4.126,11.8
4.127,11.3
4.128,10.9
4.129,10.7
4.13,10.5
4.131,10.2
4.132,9.7
4.133,9.2
4.134,8.6
4.135,7.9
4.136,7.4
4.137,7.1
4.138,7.1
4.139,7.3
4.14,7.6
4.141,7.8
4.142,7.8
4.143,7.6
4.144,7.4
4.145,7.2
4.146,7
4.147,6.8
4.148,6.6
4.149,6.4
4.15,6.6
4.151,7.3
4.152,8.2
4.153,8.9
4.154,9.2
4.155,8.8
4.156,8
4.157,7.4
4.158,7.5
4.159,8.3
4.16,9.7
4.161,11
4.162,11.7
4.163,11.5
4.164,10.6
4.165,9.3
4.166,8
4.167,7.1
4.168,6.5
4.169,6.3
4.17,6.4
4.171,6.5
4.172,6.7
4.173,7
4.174,7.3
4.175,7.7
4.176,8.3
4.177,9
4.178,9.8
4.179,10.6
4.18,11.3
4.181,11.9
4.182,12.4
4.183,12.9
4.184,13.4
4.185,14.1
4.186,14.9
4.187,15.7
4.188,16.5
4.189,17.3
4.19,17.6
4.191,17.6
4.192,17
4.193,16
4.194,15
4.195,14.1
4.196,13.5
4.197,13.3
4.198,13.2
4.199,13.1
4.2,12.8
4.201,12.5
4.202,12.2
4.203,12.2
4.204,12.4
4.205,12.8
4.206,13.2
4.207,13.5
4.208,13.5
4.209,13
4.21,12
4.211,10.8
4.212,9.4
4.213,8.5
4.214,8.2
4.215,8.7
4.216,9.6
4.217,10.7
4.218,11.4
4.219,11.6
4.22,11.1
4.221,10.4
4.222,9.7
4.223,9.2
4.224,9.2
4.225,9.6
4.226,10.2
4.227,10.8
4.228,11.1
4.229,11.2
4.23,11.1
4.231,10.8
4.232,10.6
4.233,10.6
4.234,10.9
4.235,11.4
4.236,12.1
4.237,12.8
4.238,13.4
4.239,13.6
4.24,13.5
4.241,13
4.242,12.3
4.243,11.7
4.244,11.5
4.245,11.8
4.246,12.7
4.247,14.1
4.248,15.7
4.249,17.3
4.25,18.7
4.251,19.8
4.252,20.8
4.253,21.7
4.254,22.5
4.255,23.1
4.256,23.4
4.257,23.1
4.258,22.2
4.259,20.6
4.26,18.3
4.261,15.4
4.262,12
4.263,8.1
4.264,3.8
4.265,-0.6
4.266,-5
4.267,-9.4
4.268,-13.7
4.269,-18
4.27,-22.4
4.271,-27
4.272,-31.7
4.273,-36.201
4.274,-40.301
4.275,-43.901
4.276,-47.001
4.277,-49.601
4.278,-51.601
4.279,-53.001
4.28,-53.601
4.281,-53.201
4.282,-52.001
4.283,-50.001
4.284,-47.601
4.285,-44.801
4.286,-41.501
4.287,-37.801
4.288,-33.401
4.289,-28.7
4.29,-23.8
4.291,-19.1
4.292,-14.9
4.293,-11.3
4.294,-8.3
4.295,-5.8
4.296,-3.8
4.297,-2.3
4.298,-1
4.299,0.1
4.3,1.3
4.301,2.8
4.302,4.4
4.303,5.9
4.304,7
4.305,7.7
4.306,7.8
4.307,7.8
4.308,7.7
4.309,7.6
4.31,7.7
4.311,8
4.312,8.4
4.313,8.8
4.314,9
4.315,9
4.316,8.6
4.317,8.2
4.318,7.9
4.319,8
4.32,8.7
4.321,9.8
4.322,11
4.323,11.9
4.324,12.7
4.325,13.2
4.326,13.8
4.327,14.4
4.328,14.8
4.329,14.8
4.33,14
4.331,12.5
4.332,10.6
4.333,8.8
4.334,7.6
4.335,7
4.336,7
4.337,7
4.338,6.6
4.339,5.8
4.34,4.8
4.341,3.9
4.342,3.7
4.343,4.1
4.344,4.8
4.345,5.5
4.346,5.9
4.347,5.7
4.348,5.3
4.349,4.8
4.35,4.6
4.351,4.5
4.352,4.3
4.353,4.1
4.354,3.8
4.355,3.9
4.356,4.4
4.357,5.3
4.358,6.3
4.359,7
4.36,7.2
4.361,6.7
4.362,6
4.363,5.4
4.364,5
4.365,4.9
4.366,5
4.367,5
4.368,5
4.369,5
4.37,5
4.371,4.9
4.372,4.9
4.373,4.9
4.374,5
4.375,5.4
4.376,6
4.377,6.9
4.378,7.8
4.379,8.8
4.38,10
4.381,11.6
4.382,13.7
4.383,16.4
4.384,19.6
4.385,22.6
4.386,24.9
4.387,25.9
4.388,25.5
4.389,23.9
4.39,21.6
4.391,19.1
4.392,16.9
4.393,14.9
4.394,13.1
4.395,11.1
4.396,8.8
4.397,6.4
4.398,4.1
4.399,2.4
4.4,1.5
4.401,1.4
4.402,1.8
4.403,2.3
4.404,2.8
4.405,3.1
4.406,3.3
4.407,3.5
4.408,4
4.409,4.7
4.41,5.4
4.411,5.7
4.412,5.5
4.413,4.6
4.414,3.3
4.415,2.2
4.416,1.6
4.417,2.1
4.418,3.4
4.419,5.1
4.42,6.4
4.421,6.8
4.422,6.4
4.423,5.4
4.424,4.5
4.425,3.9
4.426,3.7
4.427,3.5
4.428,3.1
4.429,2.4
4.43,1.5
4.431,0.5
4.432,-0.2
4.433,-0.6
4.434,-0.8
4.435,-0.8
4.436,-0.6
4.437,-0.1
4.438,0.8
4.439,1.7
4.44,2.7
4.441,3.5
4.442,4
4.443,4.3
4.444,4.4
4.445,4.4
4.446,4.3
4.447,4.1
4.448,3.8
4.449,3.3
4.45,2.8
4.451,2
4.452,0.9
4.453,-0.4
4.454,-1.7
4.455,-2.7
4.456,-3.4
4.457,-3.4
4.458,-3.2
4.459,-3
4.46,-3
4.461,-3.5
4.462,-4.4
4.463,-5.3
4.464,-6
4.465,-6.3
4.466,-6.2
4.467,-5.7
4.468,-5.2
4.469,-5
4.47,-5.2
4.471,-5.8
4.472,-6.8
4.473,-7.7
4.474,-8.2
4.475,-8.2
4.476,-7.6
4.477,-6.8
4.478,-6.1
4.479,-5.6
4.48,-5.5
4.481,-5.6
4.482,-5.8
4.483,-6
4.484,-6.1
4.485,-6.2
4.486,-6.3
4.487,-6.7
4.488,-7.2
4.489,-7.7
4.49,-8.2
4.491,-8.3
4.492,-8.2
4.493,-7.9
4.494,-7.6
4.495,-7.4
4.496,-7.5
4.497,-7.9
4.498,-8.5
4.499,-9.3
4.5,-10.3
4.501,-11.4
4.502,-12.4
4.503,-13.1
4.504,-13.4
4.505,-13.4
4.506,-13.1
4.507,-12.9
4.508,-13.1
4.509,-13.8
4.51,-14.6
4.511,-15.2
4.512,-15.4
4.513,-15
4.514,-14.5
4.515,-14
4.516,-14
4.517,-14.3
4.518,-14.6
4.519,-14.5
4.52,-13.8
4.521,-12.6
4.522,-11.2
4.523,-10.2
4.524,-9.7
4.525,-9.8
4.526,-10.2
4.527,-10.7
4.528,-11
4.529,-11
4.53,-10.7
4.531,-10.1
4.532,-9.5
4.533,-9
4.534,-8.7
4.535,-8.5
4.536,-8.2
4.537,-7.5
4.538,-6.4
4.539,-5
4.54,-3.4
4.541,-2.2
4.542,-1.4
4.543,-1.1
4.544,-0.8
4.545,-0.3
4.546,0.5
4.547,1.2
4.548,1.3
4.549,0.6
4.55,-0.6
4.551,-1.7
4.552,-2
4.553,-1.2
4.554,0.3
4.555,1.6
4.556,2
4.557,1.6
4.558,0.7
4.559,0.2
4.56,0.6
4.561,1.9
4.562,3.4
4.563,4.5
4.564,4.9
4.565,4.8
4.566,4.8
4.567,5.2
4.568,6.4
4.569,8
4.57,9.5
4.571,10.5
4.572,10.9
4.573,10.9
4.574,10.7
4.575,10.4
4.576,10
4.577,9.4
4.578,8.4
4.579,7.2
4.58,6
4.581,5.2
4.582,5.1
4.583,5.5
4.584,6.1
4.585,6.6
4.586,6.8
4.587,6.7
4.588,6.5
4.589,6.5
4.59,6.6
4.591,6.8
4.592,6.8
4.593,6.6
4.594,6.2
4.595,5.7
4.596,5.4
4.597,5.2
4.598,5.2
4.599,5.1
4.6,5.1
4.601,5.1
4.602,5.1
4.603,5.2
4.604,5.2
4.605,5.1
4.606,4.7
4.607,4.2
4.608,3.8
4.609,3.5
4.61,3.4
4.611,3.5
4.612,3.8
4.613,4.2
4.614,4.8
4.615,5.6
4.616,6.4
4.617,7
4.618,7.3
4.619,7.5
4.62,7.5
4.621,7.5
4.622,7.7
4.623,7.9
4.624,8
4.625,7.8
4.626,7.3
4.627,6.7
4.628,6.2
4.629,6.1
4.63,6.5
4.631,7.2
4.632,7.8
4.633,7.9
4.634,7.4
4.635,6.6
4.636,5.6
4.637,5
4.638,4.9
4.639,5.3
4.64,6.2
4.641,7.1
4.642,7.9
4.643,8.2
4.644,8.1
4.645,7.7
4.646,7.2
4.647,6.9
4.648,6.9
4.649,7.2
4.65,7.6
4.651,8
4.652,8.1
4.653,8
4.654,7.7
4.655,7.4
4.656,7.3
4.657,7.5
4.658,7.8
4.659,8.2
4.66,8.5
4.661,8.7
4.662,8.9
4.663,9.1
4.664,9.4
4.665,9.8
4.666,10.3
4.667,10.5
4.668,10.3
4.669,9.7
4.67,9.1
4.671,8.6
4.672,8.5
4.673,8.7
4.674,9
4.675,9.3
4.676,9.4
4.677,9.2
4.678,9
4.679,8.9
4.68,8.8
4.681,8.7
4.682,8.5
4.683,8.2
4.684,7.9
4.685,7.5
4.686,7.3
4.687,7.2
4.688,7.4
4.689,7.9
4.69,8.8
4.691,10
4.692,11.1
4.693,12
4.694,12.4
4.695,12.2
4.696,11.8
4.697,11.2
4.698,10.7
4.699,10
4.7,9.2
4.701,8.2
4.702,7.2
4.703,6.6
4.704,6.4
4.705,6.7
4.706,7.3
4.707,7.6
4.708,7.4
4.709,6.8
4.71,6
4.711,5.4
4.712,5.3
4.713,5.6
4.714,6
4.715,6.4
4.716,6.4
4.717,6
4.718,5.4
4.719,5
4.72,4.8
4.721,5.1
4.722,5.7
4.723,6.4
4.724,7
4.725,7.3
4.726,7.1
4.727,6.7
4.728,6.2
4.729,5.6
4.73,5.1
4.731,4.9
4.732,4.7
4.733,4.6
4.734,4.6
4.735,4.6
4.736,4.6
4.737,4.6
4.738,4.8
4.739,4.9
4.74,4.9
4.741,4.7
4.742,4.3
4.743,3.8
4.744,3.4
4.745,3.3
4.746,3.5
4.747,4
4.748,4.7
4.749,5.2
4.75,5.2
4.751,4.8
4.752,4.2
4.753,3.7
4.754,3.7
4.755,4.3
4.756,5.3
4.757,6
4.758,6.1
4.759,5.5
4.76,4.4
4.761,3.6
4.762,3.5
4.763,4.2
4.764,5.2
4.765,6.1
4.766,6.2
4.767,5.8
4.768,5
4.769,4.4
4.77,4.1
4.771,4.2
4.772,4.3
4.773,4.4
4.774,4.4
4.775,4.6
4.776,4.9
4.777,5.3
4.778,5.8
4.779,6.1
4.78,6.3
4.781,6.4
4.782,6.5
4.783,6.7
4.784,6.9
4.785,7
4.786,6.9
4.787,6.8
4.788,6.7
4.789,6.6
4.79,6.6
4.791,6.6
4.792,6.5
4.793,6.7
4.794,7.2
4.795,7.9
4.796,8.7
4.797,9.2
4.798,9.1
4.799,8.5
4.8,7.5
4.801,6.8
4.802,6.5
4.803,6.8
4.804,7.5
4.805,8.2
4.806,8.5
4.807,8.4
4.808,8
4.809,7.3
4.81,6.7
4.811,6.5
4.812,6.8
4.813,7.7
4.814,9.1
4.815,10.7
4.816,12
4.817,12.9
4.818,13.2
4.819,13.1
4.82,12.8
4.821,12.5
4.822,12.1
4.823,11.3
4.824,10.2
4.825,8.6
4.826,7
4.827,5.5
4.828,4.7
4.829,4.6
4.83,4.8
4.831,4.8
4.832,4.4
4.833,3.3
4.834,1.8
4.835,0.3
4.836,-0.5
4.837,-0.7
4.838,-0.4
4.839,0
4.84,0.2
4.841,0
4.842,-0.2
4.843,-0.1
4.844,0.7
4.845,2.3
4.846,4.3
4.847,6.4
4.848,8.4
4.849,10.4
4.85,12.7
4.851,15.2
4.852,18
4.853,20.6
4.854,22.5
4.855,23.4
4.856,23.1
4.857,22
4.858,20.3
4.859,18.4
4.86,16.5
4.861,14.5
4.862,12.3
4.863,9.9
4.864,7.4
4.865,5
4.866,3.2
4.867,2.1
4.868,1.8
4.869,2.2
4.87,2.9
4.871,3.8
4.872,4.5
4.873,5
4.874,5.3
4.875,5.6
4.876,6
4.877,6.3
4.878,6.6
4.879,6.8
4.88,6.9
4.881,6.9
4.882,6.9
4.883,7
4.884,7.3
4.885,7.5
4.886,7.8
4.887,8
4.888,8
4.889,7.9
4.89,7.5
4.891,7
4.892,6.4
4.893,5.8
4.894,5.4
4.895,5.4
4.896,5.7
4.897,6.5
4.898,7.4
4.899,8.3
4.9,8.9
4.901,9.2
4.902,9.2
4.903,9
4.904,8.9
4.905,8.8
4.906,8.8
4.907,8.7
4.908,8.5
4.909,8.1
4.91,7.7
4.911,7.4
4.912,7.2
4.913,7.4
4.914,7.7
4.915,8.2
4.916,8.7
4.917,9.2
4.918,9.5
4.919,9.7
4.92,9.7
4.921,9.4
4.922,9
4.923,8.7
4.924,8.6
4.925,9
4.926,9.7
4.927,10.6
4.928,11.4
4.929,12
4.93,12.7
4.931,13.5
4.932,14.7
4.933,16.3
4.934,18
4.935,19.3
4.936,19.9
4.937,19.8
4.938,19.4
4.939,19
4.94,18.9
4.941,19
4.942,19
4.943,18.4
4.944,17
4.945,14.7
4.946,11.8
4.947,8.7
4.948,5.4
4.949,2.1
4.95,-1.3
4.951,-4.9
4.952,-9
4.953,-13.5
4.954,-18.4
4.955,-23.6
4.956,-29
4.957,-34.201
4.958,-39.001
4.959,-43.001
4.96,-46.201
4.961,-48.601
4.962,-50.301
4.963,-51.601
4.964,-52.601
4.965,-53.201
4.966,-53.101
4.967,-52.201
4.968,-50.301
4.969,-47.501
4.97,-44.201
4.971,-40.601
4.972,-37.001
4.973,-33.201
4.974,-29.1
4.975,-24.6
4.976,-19.8
4.977,-15.3
4.978,-11.5
4.979,-9
4.98,-7.7
4.981,-7
4.982,-6.4
4.983,-5.3
4.984,-3.5
4.985,-1.4
4.986,0.4
4.987,1.3
4.988,1.4
4.989,1.1
4.99,0.8
4.991,1.1
4.992,1.9
4.993,2.9
4.994,3.5
4.995,3.6
4.996,3.1
4.997,2.5
4.998,2.2
4.999,2.2
5,2.6
5.001,3.1
5.002,3.3
5.003,3.2
5.004,3.1
5.005,3.1
5.006,3.5
5.007,4.3
5.008,5.1
5.009,5.6
5.01,5.6
5.011,5.2
5.012,4.7
5.013,4.5
5.014,4.6
5.015,5.1
5.016,5.7
5.017,6.1
5.018,6.2
5.019,6.3
5.02,6.4
5.021,6.6
5.022,6.9
5.023,7
5.024,6.9
5.025,6.6
5.026,6.2
5.027,6.1
5.028,6.4
5.029,7
5.03,7.7
5.031,8.3
5.032,8.3
5.033,7.8
5.034,7.1
5.035,6.3
5.036,5.7
5.037,5.5
5.038,5.6
5.039,5.8
5.04,6.2
5.041,6.4
5.042,6.4
5.043,6
5.044,5.3
5.045,4.5
5.046,3.6
5.047,3.1
5.048,2.8
5.049,2.9
5.05,3
5.051,3.2
5.052,3.5
5.053,4.1
5.054,5
5.055,6.2
5.056,7.3
5.057,7.9
5.058,7.7
5.059,6.8
5.06,5.4
5.061,4.1
5.062,3.2
5.063,2.7
5.064,2.4
5.065,2.2
5.066,2
5.067,1.7
5.068,1.4
5.069,1.1
5.07,1
5.071,0.8
5.072,0.4
5.073,-0.1
5.074,-0.9
5.075,-1.8
5.076,-2.8
5.077,-3.7
5.078,-4.5
5.079,-4.8
5.08,-4.6
5.081,-3.9
5.082,-3.1
5.083,-2.4
5.084,-2.1
5.085,-1.9
5.086,-1.7
5.087,-1.3
5.088,-0.7
5.089,-0.1
5.09,0.1
5.091,-0.3
5.092,-1
5.093,-1.8
5.094,-2
5.095,-1.9
5.096,-1.5
5.097,-1.5
5.098,-1.9
5.099,-2.8
5.1,-3.6
5.101,-4.1
5.102,-4.1
5.103,-3.8
5.104,-3.6
5.105,-3.6
5.106,-3.6
5.107,-3.3
5.108,-2.8
5.109,-2.3
5.11,-2.1
5.111,-2.3
5.112,-3
5.113,-3.6
5.114,-3.8
5.115,-3.6
5.116,-3.3
5.117,-3
5.118,-2.8
5.119,-2.7
5.12,-2.4
5.121,-1.8
5.122,-1.3
5.123,-1.1
5.124,-1.5
5.125,-2.3
5.126,-3.1
5.127,-3.6
5.128,-3.7
5.129,-3.8
5.13,-4.1
5.131,-4.7
5.132,-5.3
5.133,-5.6
5.134,-5.5
5.135,-5
5.136,-4.7
5.137,-4.8
5.138,-5.5
5.139,-6.3
5.14,-6.9
5.141,-6.8
5.142,-6.2
5.143,-5.6
5.144,-5.4
5.145,-5.8
5.146,-6.5
5.147,-7.2
5.148,-7.5
5.149,-7.3
5.15,-7.1
5.151,-7.2
5.152,-7.9
5.153,-8.9
5.154,-10
5.155,-10.6
5.156,-10.4
5.157,-9.6
5.158,-8.5
5.159,-7.3
5.16,-6.5
5.161,-5.9
5.162,-5.7
5.163,-5.8
5.164,-6.3
5.165,-7.2
5.166,-8.4
5.167,-9.9
5.168,-11.4
5.169,-12.7
5.17,-13.4
5.171,-13.5
5.172,-13
5.173,-12.1
5.174,-11.1
5.175,-10.2
5.176,-9.5
5.177,-9.2
5.178,-9.1
5.179,-9.3
5.18,-9.8
5.181,-10.5
5.182,-11.5
5.183,-12.7
5.184,-14
5.185,-15
5.186,-15.7
5.187,-16.1
5.188,-16
5.189,-15.8
5.19,-15.5
5.191,-15.4
5.192,-15.6
5.193,-16.1
5.194,-17.1
5.195,-18.1
5.196,-19.1
5.197,-19.6
5.198,-19.6
5.199,-19
5.2,-18.1
5.201,-17.3
5.202,-16.7
5.203,-16.5
5.204,-16.7
5.205,-17
5.206,-17.3
5.207,-17.6
5.208,-17.9
5.209,-18
5.21,-18
5.211,-17.9
5.212,-17.5
5.213,-16.9
5.214,-16
5.215,-14.9
5.216,-13.8
5.217,-12.6
5.218,-11.6
5.219,-10.8
5.22,-10.2
5.221,-9.7
5.222,-9.2
5.223,-8.8
5.224,-8.4
5.225,-7.9
5.226,-7.4
5.227,-6.8
5.228,-6.1
5.229,-5.4
5.23,-4.9
5.231,-4.8
5.232,-4.8
5.233,-5.1
5.234,-5.3
5.235,-5.5
5.236,-5.4
5.237,-5.2
5.238,-4.7
5.239,-4.1
5.24,-3.2
5.241,-2.1
5.242,-0.9
5.243,0.2
5.244,1
5.245,1.4
5.246,1.3
5.247,0.9
5.248,0.5
5.249,0.3
5.25,0.6
5.251,1.3
5.252,2.4
5.253,3.7
5.254,5
5.255,6
5.256,7
5.257,8
5.258,9.2
5.259,10.3
5.26,11.2
5.261,11.3
5.262,10.6
5.263,9.3
5.264,7.9
5.265,6.7
5.266,6
5.267,5.9
5.268,6.2
5.269,6.6
5.27,6.9
5.271,6.8
5.272,6.2
5.273,5.4
5.274,4.6
5.275,4
5.276,4.1
5.277,4.8
5.278,5.8
5.279,6.5
5.28,6.5
5.281,5.6
5.282,4.4
5.283,3.3
5.284,2.9
5.285,3.2
5.286,3.8
5.287,4.1
5.288,3.9
5.289,3.4
5.29,2.9
5.291,3
5.292,3.7
5.293,4.6
5.294,5.5
5.295,5.9
5.296,5.9
5.297,5.7
5.298,5.5
5.299,5.4
5.3,5.2
5.301,5
5.302,4.8
5.303,4.7
5.304,4.6
5.305,4.7
5.306,4.7
5.307,4.6
5.308,4.4
5.309,4.4
5.31,4.5
5.311,5
5.312,5.7
5.313,6.3
5.314,6.9
5.315,7.4
5.316,8
5.317,8.6
5.318,9.5
5.319,10.7
5.32,12.3
5.321,14.6
5.322,17.3
5.323,20.3
5.324,22.8
5.325,24.2
5.326,24
5.327,22.5
5.328,20.1
5.329,17.4
5.33,15.1
5.331,13.3
5.332,11.8
5.333,10.3
5.334,8.6
5.335,6.9
5.336,5.1
5.337,3.5
5.338,2.1
5.339,1.1
5.34,0.5
5.341,0.5
5.342,1.1
5.343,2.5
5.344,4.4
5.345,6.4
5.346,8.1
5.347,9.2
5.348,9.6
5.349,9.6
5.35,9.4
5.351,9.3
5.352,9.3
5.353,9.2
5.354,9
5.355,8.7
5.356,8.5
5.357,8.4
5.358,8.5
5.359,8.6
5.36,8.5
5.361,8.2
5.362,7.7
5.363,7.2
5.364,6.8
5.365,6.5
5.366,6.2
5.367,6
5.368,5.9
5.369,6.2
5.37,7.1
5.371,8.2
5.372,9.2
5.373,9.8
5.374,9.8
5.375,9.4
5.376,9
5.377,8.6
5.378,8.3
5.379,7.7
5.38,6.9
5.381,5.8
5.382,4.8
5.383,4.1
5.384,4
5.385,4.2
5.386,4.5
5.387,4.8
5.388,5
5.389,5.2
5.39,5.5
5.391,5.6
5.392,5.4
5.393,4.6
5.394,3.7
5.395,2.9
5.396,2.9
5.397,3.8
5.398,5.1
5.399,6.2
5.4,6.5
5.401,6
5.402,5
5.403,4.3
5.404,4.2
5.405,4.8
5.406,5.6
5.407,6
5.408,5.5
5.409,4.3
5.41,3.2
5.411,2.7
5.412,3
5.413,3.9
5.414,5
5.415,5.7
5.416,6
5.417,6.1
5.418,6.2
5.419,6.4
5.42,6.8
5.421,7.1
5.422,7.1
5.423,7
5.424,7
5.425,7.3
5.426,7.7
5.427,7.8
5.428,7.6
5.429,7.1
5.43,6.6
5.431,6.5
5.432,7.1
5.433,8
5.434,8.6
5.435,8.7
5.436,8
5.437,6.9
5.438,5.8
5.439,5.1
5.44,4.9
5.441,4.9
5.442,4.8
5.443,4.6
5.444,4.2
5.445,3.9
5.446,3.9
5.447,4.3
5.448,4.9
5.449,5.5
5.45,5.8
5.451,5.8
5.452,5.5
5.453,4.9
5.454,4.2
5.455,3.6
5.456,3.2
5.457,3.2
5.458,3.5
5.459,4
5.46,4.6
5.461,5.4
5.462,6.2
5.463,6.9
5.464,7.7
5.465,8.5
5.466,9.3
5.467,10
5.468,10.4
5.469,10.6
5.47,10.3
5.471,9.5
5.472,8.3
5.473,6.7
5.474,5
5.475,3.3
5.476,2.1
5.477,1.4
5.478,1.6
5.479,2.7
5.48,4.2
5.481,5.9
5.482,7.2
5.483,7.8
5.484,7.6
5.485,7
5.486,6.3
5.487,5.6
5.488,5.1
5.489,4.7
5.49,4.1
5.491,3.4
5.492,2.6
5.493,2
5.494,1.9
5.495,2.2
5.496,3
5.497,4
5.498,4.8
5.499,5.3
5.5,5.3
5.501,4.6
5.502,3.5
5.503,2.1
5.504,0.9
5.505,0.1
5.506,0
5.507,0.3
5.508,0.9
5.509,1.3
5.51,1.5
5.511,1.4
5.512,0.9
5.513,0.5
5.514,0
5.515,-0.2
5.516,-0.4
5.517,-0.5
5.518,-0.6
5.519,-0.8
5.52,-1.2
5.521,-1.7
5.522,-2.1
5.523,-2.2
5.524,-1.9
5.525,-1.2
5.526,-0.3
5.527,0.3
5.528,0.3
5.529,-0.4
5.53,-1.6
5.531,-2.8
5.532,-3.7
5.533,-3.9
5.534,-3.4
5.535,-2.6
5.536,-1.6
5.537,-0.7
5.538,0.2
5.539,1.1
5.54,1.9
5.541,2.4
5.542,2.5
5.543,2.2
5.544,1.6
5.545,1.2
5.546,1.3
5.547,1.8
5.548,2.5
5.549,3.1
5.55,3.2
5.551,2.9
5.552,2.7
5.553,2.7
5.554,3.2
5.555,4
5.556,4.7
5.557,5.1
5.558,5.2
5.559,5.2
5.56,5.3
5.561,5.7
5.562,6.2
5.563,6.4
5.564,6.1
5.565,5.6
5.566,4.9
5.567,4.4
5.568,4.4
5.569,4.9
5.57,5.7
5.571,6.6
5.572,7.3
5.573,7.7
5.574,7.8
5.575,7.5
5.576,7.1
5.577,6.7
5.578,6.5
5.579,6.6
5.58,6.9
5.581,7
5.582,6.8
5.583,6
5.584,4.8
5.585,3.8
5.586,3.2
5.587,3.2
5.588,3.6
5.589,3.9
5.59,3.8
5.591,3.2
5.592,2.4
5.593,2
5.594,2.4
5.595,3.5
5.596,4.7
5.597,5.4
5.598,5.2
5.599,4.5
5.6,3.9
5.601,4
5.602,4.9
5.603,6.2
5.604,7.2
5.605,7.4
5.606,6.9
5.607,6.3
5.608,6.1
5.609,6.8
5.61,8.1
5.611,9.6
5.612,10.8
5.613,11.9
5.614,13.1
5.615,14.9
5.616,17
5.617,19
5.618,20.4
5.619,20.7
5.62,20.1
5.621,18.8
5.622,17.3
5.623,15.6
5.624,13.6
5.625,11.2
5.626,8.2
5.627,4.8
5.628,1.1
5.629,-2.7
5.63,-6.8
5.631,-11.2
5.632,-15.9
5.633,-20.7
5.634,-25.4
5.635,-29.6
5.636,-33.401
5.637,-37.001
5.638,-40.501
5.639,-44.101
5.64,-47.601
5.641,-50.701
5.642,-52.901
5.643,-54.101
5.644,-54.301
5.645,-53.701
5.646,-52.601
5.647,-51.101
5.648,-49.201
5.649,-46.701
5.65,-43.401
5.651,-39.201
5.652,-34.301
5.653,-29.1
5.654,-24.1
5.655,-19.9
5.656,-16.4
5.657,-13.6
5.658,-11
5.659,-8.5
5.66,-5.9
5.661,-3.5
5.662,-1.4
5.663,0.3
5.664,2
5.665,3.6
5.666,5.4
5.667,7.2
5.668,8.6
5.669,9.6
5.67,10.2
5.671,10.6
5.672,11.1
5.673,11.7
5.674,12.1
5.675,12.1
5.676,11.3
5.677,9.9
5.678,8.2
5.679,6.5
5.68,5
5.681,3.9
5.682,3.4
5.683,3.2
5.684,3.3
5.685,3.2
5.686,2.6
5.687,1.4
5.688,0
5.689,-1.1
5.69,-1.4
5.691,-0.6
5.692,0.6
5.693,1.4
5.694,1.4
5.695,0.3
5.696,-1
5.697,-1.9
5.698,-1.9
5.699,-1.1
5.7,-0.1
5.701,0.8
5.702,1.2
5.703,1.4
5.704,1.7
5.705,2.3
5.706,2.9
5.707,3.3
5.708,3.5
5.709,3.5
5.71,3.6
5.711,3.9
5.712,4.2
5.713,4
5.714,3.2
5.715,1.9
5.716,0.6
5.717,-0.2
5.718,-0.1
5.719,0.7
5.72,1.9
5.721,3
5.722,3.7
5.723,4.1
5.724,4.4
5.725,4.9
5.726,5.5
5.727,6
5.728,6.1
5.729,5.7
5.73,5.1
5.731,4.6
5.732,4.5
5.733,4.7
5.734,5
5.735,5.2
5.736,5
5.737,4.6
5.738,4.3
5.739,4.5
5.74,5
5.741,5.7
5.742,6
5.743,5.8
5.744,5
5.745,4
5.746,3.2
5.747,2.9
5.748,3
5.749,3.5
5.75,4
5.751,4.4
5.752,4.7
5.753,5
5.754,5.2
5.755,5.4
5.756,5.5
5.757,5.4
5.758,5.1
5.759,4.6
5.76,4
5.761,3.3
5.762,2.7
5.763,2.4
5.764,2.4
5.765,2.9
5.766,3.6
5.767,4.4
5.768,5
5.769,5.4
5.77,5.7
5.771,6
5.772,6.1
5.773,5.7
5.774,4.7
5.775,3.1
5.776,1
5.777,-1.1
5.778,-2.7
5.779,-3.4
5.78,-3.4
5.781,-2.7
5.782,-1.8
5.783,-0.9
5.784,-0.3
5.785,0.2
5.786,0.8
5.787,1.9
5.788,3.6
5.789,6.1
5.79,9.2
5.791,12.2
5.792,14.7
5.793,16.2
5.794,16.6
5.795,15.9
5.796,14.5
5.797,12.5
5.798,10.1
5.799,7.1
5.8,3.8
5.801,0.3
5.802,-3.3
5.803,-6.6
5.804,-9.4
5.805,-11.5
5.806,-12.9
5.807,-13.4
5.808,-13.2
5.809,-12.5
5.81,-11.5
5.811,-10.4
5.812,-9.6
5.813,-9.2
5.814,-9.1
5.815,-9.2
5.816,-9.4
5.817,-9.7
5.818,-9.8
5.819,-9.9
5.82,-9.9
5.821,-9.9
5.822,-9.8
5.823,-9.7
5.824,-9.7
5.825,-9.7
5.826,-9.6
5.827,-9.3
5.828,-8.7
5.829,-8.1
5.83,-7.5
5.831,-7.2
5.832,-7.3
5.833,-7.5
5.834,-7.8
5.835,-8
5.836,-8.3
5.837,-8.8
5.838,-9.4
5.839,-10.1
5.84,-10.8
5.841,-11.3
5.842,-11.8
5.843,-12.3
5.844,-12.8
5.845,-13.1
5.846,-13.2
5.847,-13.1
5.848,-13.1
5.849,-13.6
5.85,-14.7
5.851,-16.3
5.852,-17.7
5.853,-18.3
5.854,-18
5.855,-17
5.856,-16.1
5.857,-15.8
5.858,-16.4
5.859,-17.5
5.86,-18.5
5.861,-18.7
5.862,-18.1
5.863,-17
5.864,-15.8
5.865,-15
5.866,-14.7
5.867,-14.7
5.868,-14.7
5.869,-14.4
5.87,-14
5.871,-13.7
5.872,-13.7
5.873,-14.3
5.874,-15.4
5.875,-16.6
5.876,-17.7
5.877,-18.4
5.878,-18.4
5.879,-18
5.88,-17.4
5.881,-17.1
5.882,-17.2
5.883,-17.7
5.884,-18.3
5.885,-18.5
5.886,-18.2
5.887,-17.4
5.888,-16.3
5.889,-15.5
5.89,-15.1
5.891,-15.1
5.892,-15.5
5.893,-15.7
5.894,-15.7
5.895,-15.1
5.896,-14.3
5.897,-13.3
5.898,-12.5
5.899,-11.8
5.9,-11.3
5.901,-10.9
5.902,-10.4
5.903,-9.9
5.904,-9.5
5.905,-9.3
5.906,-9.2
5.907,-9.1
5.908,-8.6
5.909,-7.5
5.91,-6.1
5.911,-4.8
5.912,-3.8
5.913,-3.5
5.914,-3.7
5.915,-3.8
5.916,-3.7
5.917,-3.2
5.918,-2.5
5.919,-1.8
5.92,-1.3
5.921,-1
5.922,-0.6
5.923,-0.2
5.924,0.3
5.925,0.7
5.926,1
5.927,1.3
5.928,1.6
5.929,2.1
5.93,2.3
5.931,2.2
5.932,1.7
5.933,1.1
5.934,0.7
5.935,0.8
5.936,1.6
5.937,2.5
5.938,3.3
5.939,3.7
5.94,3.6
5.941,3.3
5.942,3
5.943,2.9
5.944,3
5.945,3.3
5.946,3.7
5.947,4
5.948,4.2
5.949,4.2
5.95,4
5.951,4
5.952,4.2
5.953,4.8
5.954,5.8
5.955,7
5.956,8.2
5.957,9.2
5.958,10.1
5.959,10.8
5.96,11.1
5.961,10.9
5.962,10
5.963,8.7
5.964,7.1
5.965,5.8
5.966,4.9
5.967,4.4
5.968,4.2
5.969,3.9
5.97,3.6
5.971,3.2
5.972,2.9
5.973,2.7
5.974,2.7
5.975,2.8
5.976,3
5.977,3.3
5.978,3.8
5.979,4.2
5.98,4.6
5.981,4.8
5.982,4.6
5.983,4.1
5.984,3.4
5.985,2.8
5.986,2.4
5.987,2.6
5.988,3.2
5.989,4.3
5.99,5.4
5.991,6.1
5.992,6.1
5.993,5.4
5.994,4.2
5.995,3.2
5.996,2.6
5.997,2.7
5.998,3.3
5.999,3.9
6,4.3
6.001,4.2
6.002,3.7
6.003,3.1
6.004,2.6
6.005,2.3
6.006,2.4
6.007,2.6
6.008,2.6
6.009,2.4
6.01,1.8
6.011,1
6.012,0.5
6.013,0.4
6.014,0.9
6.015,1.9
6.016,2.9
6.017,3.7
6.018,3.8
6.019,3.5
6.02,3
6.021,2.6
6.022,2.6
6.023,2.8
6.024,3.2
6.025,3.4
6.026,3.3
6.027,3.2
6.028,3
6.029,2.9
6.03,2.9
6.031,3
6.032,3
6.033,2.9
6.034,2.6
6.035,2.5
6.036,2.6
6.037,2.9
6.038,3.3
6.039,3.5
6.04,3.4
6.041,3
6.042,2.6
6.043,2.7
6.044,3.6
6.045,5.2
6.046,7.3
6.047,9.2
6.048,10.5
6.049,11
6.05,10.9
6.051,10.5
6.052,10.2
6.053,10.1
6.054,10.2
6.055,10
6.056,9.3
6.057,7.9
6.058,6
6.059,4.1
6.06,2.6
6.061,2.1
6.062,2.7
6.063,4.1
6.064,5.7
6.065,6.9
6.066,7.4
6.067,7.1
6.068,6.2
6.069,5.2
6.07,4.4
6.071,3.9
6.072,3.7
6.073,3.6
6.074,3.4
6.075,3.3
6.076,3.2
6.077,3.4
6.078,3.7
6.079,4.1
6.08,4.3
6.081,4.3
6.082,4
6.083,3.6
6.084,3.2
6.085,2.9
6.086,2.8
6.087,2.8
6.088,2.6
6.089,2.4
6.09,2.1
6.091,2.1
6.092,2.4
6.093,2.9
6.094,3.5
6.095,3.8
6.096,3.8
6.097,3.5
6.098,3.2
6.099,3.2
6.1,3.3
6.101,3.4
6.102,3.5
6.103,3.6
6.104,3.7
6.105,4
6.106,4.5
6.107,5.1
6.108,5.4
6.109,5.3
6.11,5
6.111,4.9
6.112,5
6.113,5.5
6.114,5.9
6.115,5.9
6.116,5.3
6.117,4.1
6.118,2.8
6.119,1.9
6.12,1.7
6.121,2.1
6.122,3
6.123,3.9
6.124,4.5
6.125,4.8
6.126,4.8
6.127,4.7
6.128,4.8
6.129,5.2
6.13,5.5
6.131,5.8
6.132,5.7
6.133,5.3
6.134,4.9
6.135,5
6.136,5.9
6.137,7.5
6.138,9.4
6.139,11
6.14,11.8
6.141,11.9
6.142,11.6
6.143,11.3
6.144,11.4
6.145,11.7
6.146,11.7
6.147,11
6.148,9.4
6.149,7.4
6.15,5.6
6.151,4.6
6.152,4.5
6.153,4.8
6.154,4.9
6.155,4.4
6.156,3.2
6.157,1.7
6.158,0.3
6.159,-0.7
6.16,-1.2
6.161,-1.5
6.162,-1.7
6.163,-2
6.164,-2.3
6.165,-2.7
6.166,-3.2
6.167,-3.7
6.168,-4.4
6.169,-5.1
6.17,-5.7
6.171,-5.9
6.172,-5.9
6.173,-5.8
6.174,-5.6
6.175,-5.4
6.176,-5.2
6.177,-5
6.178,-4.6
6.179,-4.2
6.18,-3.7
6.181,-3.4
6.182,-3.1
6.183,-2.9
6.184,-2.7
6.185,-2.5
6.186,-2.3
6.187,-2.1
6.188,-2
6.189,-2.1
6.19,-2.3
6.191,-2.6
6.192,-2.9
6.193,-3.1
6.194,-3.1
6.195,-2.9
6.196,-2.5
6.197,-1.9
6.198,-1.4
6.199,-0.9
6.2,-0.5
6.201,-0.3
6.202,-0.2
6.203,0
6.204,0.2
6.205,0.6
6.206,1.1
6.207,1.4
6.208,1.5
6.209,1.6
6.21,1.7
6.211,2
6.212,2.6
6.213,3.4
6.214,3.9
6.215,4
6.216,3.7
6.217,3.3
6.218,2.9
6.219,3
6.22,3.3
6.221,3.5
6.222,3.5
6.223,3
6.224,2.4
6.225,1.9
6.226,1.9
6.227,2.5
6.228,3.4
6.229,4.1
6.23,4.3
6.231,4
6.232,3.5
6.233,3.2
6.234,3.5
6.235,4.3
6.236,5.4
6.237,6.2
6.238,6.6
6.239,6.3
6.24,5.7
6.241,5.1
6.242,4.7
6.243,4.6
6.244,4.6
6.245,4.5
6.246,4.1
6.247,3.5
6.248,2.8
6.249,2.3
6.25,2.4
6.251,3
6.252,4.2
6.253,5.8
6.254,7.7
6.255,10
6.256,12.6
6.257,15.4
6.258,18.3
6.259,20.8
6.26,22.6
6.261,23.2
6.262,22.8
6.263,21.7
6.264,20.2
6.265,18.9
6.266,18
6.267,17.5
6.268,16.9
6.269,16.2
6.27,14.9
6.271,13.2
6.272,11.4
6.273,9.7
6.274,8.4
6.275,7.5
6.276,6.6
6.277,5.8
6.278,4.7
6.279,3.2
6.28,1.4
6.281,-1
6.282,-3.9
6.283,-7.4
6.284,-11.3
6.285,-15.4
6.286,-19.4
6.287,-23.2
6.288,-26.7
6.289,-30.1
6.29,-33.501
6.291,-37.101
6.292,-40.901
6.293,-45.001
6.294,-48.901
6.295,-52.401
6.296,-55.301
6.297,-57.201
6.298,-58.201
6.299,-58.401
6.3,-58.001
6.301,-57.101
6.302,-55.401
6.303,-53.001
6.304,-49.701
6.305,-45.501
6.306,-40.601
6.307,-35.301
6.308,-30
6.309,-25
6.31,-20.7
6.311,-17.2
6.312,-14.6
6.313,-12.6
6.314,-11
6.315,-9.5
6.316,-7.8
6.317,-5.7
6.318,-3.3
6.319,-0.8
6.32,1.7
6.321,4
6.322,5.7
6.323,6.9
6.324,7.5
6.325,7.6
6.326,7.3
6.327,6.7
6.328,5.9
6.329,4.9
6.33,3.8
6.331,2.7
6.332,1.7
6.333,1.1
6.334,0.8
6.335,0.9
6.336,1.1
6.337,1.2
6.338,1.2
6.339,1.1
6.34,1
6.341,1
6.342,1.1
6.343,1.2
6.344,1.3
6.345,1.5
6.346,1.6
6.347,1.7
6.348,1.6
6.349,1.2
6.35,0.4
6.351,-0.4
6.352,-1.1
6.353,-1.3
6.354,-0.8
6.355,0
6.356,0.9
6.357,1.6
6.358,1.9
6.359,2
6.36,2.2
6.361,2.5
6.362,2.9
6.363,2.9
6.364,2.6
6.365,1.8
6.366,1.1
6.367,0.7
6.368,0.7
6.369,1.1
6.37,1.5
6.371,1.6
6.372,1.5
6.373,1.3
6.374,1.5
6.375,2
6.376,2.6
6.377,2.8
6.378,2.4
6.379,1.5
6.38,0.4
6.381,-0.1
6.382,0.3
6.383,1.3
6.384,2.5
6.385,3.3
6.386,3.2
6.387,2.6
6.388,1.8
6.389,1.3
6.39,1.2
6.391,1.5
6.392,2
6.393,2.2
6.394,2.1
6.395,1.7
6.396,1.3
6.397,0.9
6.398,0.6
6.399,0.5
6.4,0.4
6.401,0.5
6.402,0.8
6.403,1.3
6.404,1.9
6.405,2.5
6.406,2.9
6.407,2.9
6.408,2.6
6.409,2.3
6.41,2.2
6.411,2.4
6.412,2.9
6.413,3.6
6.414,4.1
6.415,4.3
6.416,4.2
6.417,3.9
6.418,3.7
6.419,3.7
6.42,3.9
6.421,4.3
6.422,4.9
6.423,5.5
6.424,6
6.425,6.2
6.426,6
6.427,5.3
6.428,4.1
6.429,2.7
6.43,1.3
6.431,0.1
6.432,-0.6
6.433,-1.1
6.434,-1.4
6.435,-1.7
6.436,-2.1
6.437,-2.6
6.438,-2.9
6.439,-3
6.44,-2.9
6.441,-2.8
6.442,-2.7
6.443,-2.9
6.444,-3.3
6.445,-3.7
6.446,-3.9
6.447,-3.9
6.448,-3.6
6.449,-3.3
6.45,-3.2
6.451,-3.6
6.452,-4.5
6.453,-5.6
6.454,-6.5
6.455,-6.8
6.456,-6.4
6.457,-5.5
6.458,-4.5
6.459,-4
6.46,-4
6.461,-4.3
6.462,-4.8
6.463,-5.2
6.464,-5.6
6.465,-6.1
6.466,-6.8
6.467,-7.8
6.468,-8.7
6.469,-9.4
6.47,-9.7
6.471,-9.7
6.472,-9.7
6.473,-9.9
6.474,-10.2
6.475,-10.7
6.476,-11
6.477,-11.3
6.478,-11.6
6.479,-12
6.48,-12.7
6.481,-13.5
6.482,-14.5
6.483,-15.5
6.484,-16.3
6.485,-17
6.486,-17.3
6.487,-17.5
6.488,-17.3
6.489,-17.1
6.49,-16.7
6.491,-16.3
6.492,-15.6
6.493,-14.9
6.494,-14
6.495,-13.5
6.496,-13.4
6.497,-14
6.498,-15.1
6.499,-16.3
6.5,-17.1
6.501,-17.4
6.502,-17.2
6.503,-16.8
6.504,-16.5
6.505,-16.6
6.506,-16.8
6.507,-17
6.508,-17.1
6.509,-16.8
6.51,-16.5
6.511,-16.2
6.512,-16
6.513,-15.9
6.514,-15.7
6.515,-15.3
6.516,-14.5
6.517,-13.4
6.518,-12.2
6.519,-11.2
6.52,-10.7
6.521,-11
6.522,-12
6.523,-13.6
6.524,-15.5
6.525,-17.1
6.526,-18.1
6.527,-18.5
6.528,-18.5
6.529,-18.4
6.53,-18.5
6.531,-18.7
6.532,-18.9
6.533,-18.7
6.534,-18.2
6.535,-17.6
6.536,-17.1
6.537,-17
6.538,-17.3
6.539,-17.7
6.54,-17.8
6.541,-17.6
6.542,-17.1
6.543,-16.7
6.544,-16.7
6.545,-17
6.546,-17.3
6.547,-17.3
6.548,-16.8
6.549,-15.9
6.55,-14.9
6.551,-14.1
6.552,-13.5
6.553,-13.1
6.554,-12.7
6.555,-12.2
6.556,-11.7
6.557,-11.2
6.558,-10.7
6.559,-10.1
6.56,-9.3
6.561,-8.4
6.562,-7.5
6.563,-6.7
6.564,-6.3
6.565,-6
6.566,-5.7
6.567,-5.2
6.568,-4.4
6.569,-3.7
6.57,-3.1
6.571,-2.8
6.572,-2.7
6.573,-2.7
6.574,-2.6
6.575,-2.4
6.576,-2
6.577,-1.6
6.578,-1.1
6.579,-0.7
6.58,-0.4
6.581,-0.4
6.582,-0.5
6.583,-0.7
6.584,-0.6
6.585,-0.3
6.586,0.2
6.587,0.7
6.588,1.2
6.589,1.4
6.59,1.4
6.591,1.3
6.592,1.3
6.593,1.5
6.594,1.8
6.595,2.4
6.596,3.2
6.597,4.1
6.598,5.1
6.599,5.8
6.6,6.2
6.601,6.1
6.602,5.8
6.603,5.6
6.604,5.8
6.605,6.5
6.606,7.4
6.607,8.3
6.608,8.9
6.609,8.9
6.61,8.5
6.611,7.8
6.612,7.3
6.613,7.2
6.614,7.6
6.615,8
6.616,8.1
6.617,7.5
6.618,6.2
6.619,4.6
6.62,3.2
6.621,2.6
6.622,3
6.623,3.9
6.624,4.8
6.625,4.9
6.626,4.2
6.627,2.8
6.628,1.4
6.629,0.6
6.63,0.6
6.631,1.2
6.632,1.9
6.633,2.2
6.634,1.9
6.635,1.2
6.636,0.5
6.637,0.2
6.638,0.3
6.639,0.6
6.64,0.7
6.641,0.5
6.642,0.1
6.643,-0.2
6.644,-0.1
6.645,0.5
6.646,1.3
6.647,2
6.648,2.5
6.649,2.5
6.65,2.3
6.651,2.2
6.652,2.3
6.653,2.5
6.654,2.7
6.655,2.8
6.656,2.9
6.657,2.9
6.658,3.1
6.659,3.5
6.66,4
6.661,4.6
6.662,5
6.663,5.1
6.664,4.9
6.665,4.4
6.666,3.7
6.667,3.1
6.668,2.5
6.669,2.2
6.67,2.1
6.671,2.3
6.672,2.9
6.673,3.8
6.674,4.6
6.675,5.1
6.676,4.9
6.677,4.3
6.678,3.5
6.679,3
6.68,3.3
6.681,4.1
6.682,5.1
6.683,5.8
6.684,5.9
6.685,5.7
6.686,5.6
6.687,5.9
6.688,6.9
6.689,8.3
6.69,9.5
6.691,10.2
6.692,10.2
6.693,9.8
6.694,9.3
6.695,8.9
6.696,8.5
6.697,8.1
6.698,7.4
6.699,6.5
6.7,5.5
6.701,4.9
6.702,4.7
6.703,4.9
6.704,5.4
6.705,5.7
6.706,5.7
6.707,5.2
6.708,4.3
6.709,3.5
6.71,2.9
6.711,2.6
6.712,2.4
6.713,2.3
6.714,1.9
6.715,1.3
6.716,0.9
6.717,0.9
6.718,1.6
6.719,2.8
6.72,4
6.721,5
6.722,5.7
6.723,6.4
6.724,7.5
6.725,9.6
6.726,12.6
6.727,16.2
6.728,19.6
6.729,22
6.73,22.9
6.731,22.3
6.732,20.4
6.733,17.7
6.734,14.7
6.735,12
6.736,9.6
6.737,7.6
6.738,5.8
6.739,4
6.74,2.2
6.741,0.5
6.742,-0.9
6.743,-1.7
6.744,-1.9
6.745,-1.7
6.746,-1.4
6.747,-1.2
6.748,-1
6.749,-0.7
6.75,-0.1
6.751,0.7
6.752,1.4
6.753,1.7
6.754,1.6
6.755,1.3
6.756,1.5
6.757,2.4
6.758,3.9
6.759,5.6
6.76,6.7
6.761,6.9
6.762,6.5
6.763,5.8
6.764,5.5
6.765,5.9
6.766,6.8
6.767,7.9
6.768,8.6
6.769,8.8
6.77,8.4
6.771,7.8
6.772,7.4
6.773,7.3
6.774,7.7
6.775,8.3
6.776,8.8
6.777,9.2
6.778,9.4
6.779,9.5
6.78,9.6
6.781,9.4
6.782,8.9
6.783,7.9
6.784,6.3
6.785,4.4
6.786,2.5
6.787,1
6.788,0
6.789,-0.3
6.79,-0.3
6.791,-0.2
6.792,-0.3
6.793,-0.6
6.794,-1.2
6.795,-1.9
6.796,-2.7
6.797,-3.4
6.798,-3.7
6.799,-3.7
6.8,-3.2
6.801,-2.5
6.802,-1.8
6.803,-1.3
6.804,-1
6.805,-1
6.806,-1.2
6.807,-1.5
6.808,-1.6
6.809,-1.7
6.81,-1.4
6.811,-0.8
6.812,0.1
6.813,1.1
6.814,2
6.815,2.5
6.816,2.6
6.817,2.3
6.818,1.9
6.819,1.7
6.82,1.8
6.821,2.3
6.822,2.8
6.823,3.2
6.824,3.2
6.825,2.9
6.826,2.6
6.827,2.6
6.828,2.9
6.829,3.5
6.83,4
6.831,4
6.832,3.7
6.833,3
6.834,2.4
6.835,2.2
6.836,2.1
6.837,2.2
6.838,2.1
6.839,1.8
6.84,1.5
6.841,1.5
6.842,1.9
6.843,2.5
6.844,3.1
6.845,3.3
6.846,3.2
6.847,2.8
6.848,2.5
6.849,2.5
6.85,2.9
6.851,3.2
6.852,3.3
6.853,3.1
6.854,2.7
6.855,2.5
6.856,2.7
6.857,3.5
6.858,4.5
6.859,5.2
6.86,5.3
6.861,4.9
6.862,4.2
6.863,3.6
6.864,3.5
6.865,4
6.866,4.8
6.867,5.9
6.868,6.8
6.869,7.6
6.87,8.2
6.871,8.6
6.872,8.5
6.873,7.8
6.874,6.7
6.875,5.2
6.876,3.9
6.877,3.3
6.878,3.6
6.879,5.1
6.88,7.3
6.881,10
6.882,12.6
6.883,14.9
6.884,16.7
6.885,18
6.886,18.7
6.887,18.8
6.888,18.4
6.889,17.5
6.89,16.1
6.891,14.5
6.892,12.5
6.893,10.2
6.894,7.6
6.895,4.6
6.896,1.3
6.897,-2.2
6.898,-6
6.899,-9.9
6.9,-14
6.901,-18.3
6.902,-22.8
6.903,-27.4
6.904,-32
6.905,-36.401
6.906,-40.601
6.907,-44.401
6.908,-47.801
6.909,-50.701
6.91,-52.901
6.911,-54.201
6.912,-54.601
6.913,-54.201
6.914,-53.101
6.915,-51.701
6.916,-50.101
6.917,-48.301
6.918,-46.101
6.919,-43.301
6.92,-39.801
6.921,-35.601
6.922,-30.8
6.923,-26
6.924,-21.3
6.925,-17.1
6.926,-13.7
6.927,-11.1
6.928,-9.2
6.929,-7.8
6.93,-6.7
6.931,-5.6
6.932,-4.1
6.933,-2.2
6.934,-0.4
6.935,1.2
6.936,2.3
6.937,2.9
6.938,3.1
6.939,3.3
6.94,3.6
6.941,3.8
6.942,3.6
6.943,2.9
6.944,1.8
6.945,0.7
6.946,-0.1
6.947,-0.2
6.948,0.1
6.949,0.7
6.95,1.2
6.951,1.3
6.952,1
6.953,0.7
6.954,0.6
6.955,1.2
6.956,2.3
6.957,3.9
6.958,5.5
6.959,6.7
6.96,7.2
6.961,7.3
6.962,7.3
6.963,7.5
6.964,8.1
6.965,8.6
6.966,8.7
6.967,8
6.968,6.8
6.969,5.3
6.97,4.1
6.971,3.6
6.972,3.8
6.973,4.3
6.974,4.8
6.975,5.2
6.976,5.3
6.977,5.1
6.978,4.7
6.979,4.2
6.98,3.5
6.981,2.9
6.982,2.5
6.983,2.3
6.984,2.3
6.985,2.4
6.986,2.5
6.987,2.4
6.988,2.5
6.989,2.6
6.99,3.1
6.991,3.6
6.992,4.1
6.993,4.1
6.994,3.6
6.995,2.7
6.996,1.6
6.997,0.7
6.998,0.3
6.999,0.5
7,1
7.001,1.7
7.002,2.2
7.003,2.3
7.004,2.2
7.005,2
7.006,1.9
7.007,2
7.008,2.2
7.009,2.5
7.01,2.6
7.011,2.7
7.012,2.9
7.013,3.2
7.014,3.6
7.015,4
7.016,3.9
7.017,3.2
7.018,2.1
7.019,1
7.02,0.3
7.021,0.3
7.022,0.9
7.023,1.7
7.024,2.2
7.025,2.3
7.026,2
7.027,1.6
7.028,1.6
7.029,1.8
7.03,2.3
7.031,2.7
7.032,2.7
7.033,2.5
7.034,2.1
7.035,1.8
7.036,1.7
7.037,1.8
7.038,1.9
7.039,2
7.04,2.1
7.041,2.2
7.042,2.5
7.043,2.7
7.044,2.9
7.045,2.9
7.046,2.7
7.047,2.6
7.048,2.5
7.049,2.7
7.05,3.2
7.051,4
7.052,4.9
7.053,6.1
7.054,7.2
7.055,8.3
7.056,9
7.057,9
7.058,8.2
7.059,6.9
7.06,5.2
7.061,3.6
7.062,2.3
7.063,1.2
7.064,0.2
7.065,-1
7.066,-2.2
7.067,-3.2
7.068,-3.8
7.069,-3.8
7.07,-3.3
7.071,-2.7
7.072,-2.4
7.073,-2.8
7.074,-3.8
7.075,-5
7.076,-6.1
7.077,-6.9
7.078,-7.3
7.079,-7.8
7.08,-8.6
7.081,-9.7
7.082,-10.8
7.083,-11.5
7.084,-11.2
7.085,-10.1
7.086,-8.7
7.087,-7.8
7.088,-7.8
7.089,-9
7.09,-10.7
7.091,-12.3
7.092,-13.2
7.093,-13.5
7.094,-13.5
7.095,-13.6
7.096,-13.9
7.097,-14
7.098,-13.7
7.099,-12.8
7.1,-11.6
7.101,-10.7
7.102,-10.4
7.103,-10.7
7.104,-11.4
7.105,-12
7.106,-12.2
7.107,-12.3
7.108,-12.7
7.109,-13.6
7.11,-14.9
7.111,-16.1
7.112,-16.8
7.113,-16.5
7.114,-15.5
7.115,-14.2
7.116,-13.1
7.117,-12.5
7.118,-12.2
7.119,-12.2
7.12,-12.2
7.121,-12.5
7.122,-13
7.123,-13.9
7.124,-15
7.125,-15.9
7.126,-16.4
7.127,-16.2
7.128,-15.6
7.129,-14.8
7.13,-14.4
7.131,-14.6
7.132,-15.3
7.133,-16.2
7.134,-16.9
7.135,-17.1
7.136,-17
7.137,-16.6
7.138,-16.1
7.139,-15.9
7.14,-15.8
7.141,-15.8
7.142,-15.8
7.143,-15.6
7.144,-15.1
7.145,-14.7
7.146,-14.4
7.147,-14.5
7.148,-15.1
7.149,-16
7.15,-16.6
7.151,-16.7
7.152,-16
7.153,-14.5
7.154,-12.7
7.155,-10.9
7.156,-9.7
7.157,-8.9
7.158,-8.7
7.159,-8.9
7.16,-9.2
7.161,-9.8
7.162,-10.3
7.163,-10.7
7.164,-10.9
7.165,-10.7
7.166,-10.3
7.167,-9.9
7.168,-9.6
7.169,-9.4
7.17,-9
7.171,-8.4
7.172,-7.6
7.173,-6.8
7.174,-6.3
7.175,-6.1
7.176,-6.2
7.177,-6.3
7.178,-6.3
7.179,-6.2
7.18,-6.2
7.181,-6.4
7.182,-6.5
7.183,-6.4
7.184,-5.7
7.185,-4.4
7.186,-2.7
7.187,-1.2
7.188,0
7.189,1
7.19,2
7.191,3.9
7.192,6.8
7.193,10.8
7.194,15.3
7.195,19.4
7.196,22.1
7.197,23.1
7.198,22.2
7.199,20.2
7.2,17.8
7.201,15.5
7.202,13.7
7.203,12
7.204,10.1
7.205,7.7
7.206,4.8
7.207,1.8
7.208,-0.7
7.209,-2.1
7.21,-2.5
7.211,-2.2
7.212,-1.8
7.213,-1.7
7.214,-2
7.215,-2.3
7.216,-2.2
7.217,-1.7
7.218,-0.8
7.219,0.3
7.22,1.2
7.221,1.6
7.222,1.5
7.223,0.9
7.224,0.2
7.225,-0.5
7.226,-0.8
7.227,-0.5
7.228,0.5
7.229,1.9
7.23,3.3
7.231,4.3
7.232,4.6
7.233,4.3
7.234,3.8
7.235,3.7
7.236,4.2
7.237,5.1
7.238,5.8
7.239,6.1
7.24,5.5
7.241,4.5
7.242,3.5
7.243,3
7.244,3.1
7.245,3.7
7.246,4.3
7.247,4.9
7.248,5.4
7.249,5.9
7.25,6.7
7.251,7.7
7.252,8.7
7.253,9.4
7.254,9.8
7.255,9.7
7.256,9.2
7.257,8.1
7.258,6.6
7.259,4.9
7.26,3.3
7.261,2.2
7.262,1.9
7.263,2.1
7.264,2.5
7.265,2.5
7.266,2.2
7.267,1.8
7.268,1.9
7.269,2.7
7.27,4.1
7.271,5.5
7.272,6.4
7.273,6.5
7.274,5.9
7.275,5
7.276,4.2
7.277,3.6
7.278,3.2
7.279,3
7.28,2.9
7.281,3.2
7.282,3.6
7.283,4.1
7.284,4.3
7.285,4.1
7.286,3.5
7.287,2.9
7.288,2.5
7.289,2.5
7.29,2.8
7.291,3.3
7.292,3.8
7.293,4.2
7.294,4.4
7.295,4.5
7.296,4.3
7.297,3.9
7.298,3.5
7.299,3.3
7.3,3.4
7.301,3.9
7.302,4.5
7.303,4.9
7.304,4.9
7.305,4.6
7.306,4
7.307,3.4
7.308,3
7.309,2.8
7.31,2.9
7.311,3.2
7.312,3.6
7.313,4
7.314,4.4
7.315,4.7
7.316,4.8
7.317,4.9
7.318,5
7.319,5.1
7.32,5.5
7.321,5.9
7.322,6.2
7.323,6.4
7.324,6.3
7.325,6.1
7.326,5.6
7.327,5.1
7.328,4.5
7.329,3.8
7.33,3.1
7.331,2.6
7.332,2.4
7.333,2.6
7.334,3.3
7.335,4.3
7.336,5.2
7.337,5.7
7.338,5.5
7.339,4.7
7.34,4
7.341,3.7
7.342,4.3
7.343,5.8
7.344,7.6
7.345,9.3
7.346,10.4
7.347,11
7.348,11.6
7.349,12.4
7.35,13.5
7.351,14.4
7.352,14.6
7.353,13.7
7.354,11.9
7.355,9.7
7.356,7.9
7.357,7.1
7.358,7.1
7.359,7.4
7.36,7.3
7.361,6.6
7.362,5.3
7.363,3.9
7.364,2.9
7.365,2.7
7.366,3
7.367,3.4
7.368,3.5
7.369,3
7.37,2.1
7.371,1
7.372,0.1
7.373,-0.2
7.374,-0.1
7.375,0.1
7.376,0.3
7.377,0.1
7.378,-0.2
7.379,-0.5
7.38,-0.5
7.381,-0.3
7.382,-0.1
7.383,0
7.384,-0.4
7.385,-1
7.386,-1.7
7.387,-2.1
7.388,-2.3
7.389,-2.2
7.39,-2.1
7.391,-2.1
7.392,-2.3
7.393,-2.7
7.394,-3.2
7.395,-3.5
7.396,-3.6
7.397,-3.5
7.398,-3.1
7.399,-2.4
7.4,-1.6
7.401,-1
7.402,-0.6
7.403,-0.7
7.404,-1.1
7.405,-1.6
7.406,-1.9
7.407,-1.7
7.408,-1.2
7.409,-0.5
7.41,0.1
7.411,0.5
7.412,0.4
7.413,0.1
7.414,-0.2
7.415,-0.4
7.416,-0.4
7.417,-0.3
7.418,-0.3
7.419,-0.2
7.42,-0.1
7.421,0.3
7.422,1
7.423,2
7.424,2.9
7.425,3.4
7.426,3.5
7.427,3.3
7.428,3
7.429,3
7.43,3.4
7.431,4.3
7.432,5.2
7.433,5.8
7.434,5.8
7.435,5.1
7.436,4.2
7.437,3.5
7.438,3.6
7.439,4.4
7.44,5.8
7.441,7.1
7.442,7.8
7.443,7.8
7.444,7.4
7.445,7.2
7.446,7.5
7.447,8
7.448,8.3
7.449,7.9
7.45,6.7
7.451,5.3
7.452,4.2
7.453,4.1
7.454,4.8
7.455,5.8
7.456,6.3
7.457,6.1
7.458,5.2
7.459,4.4
7.46,4.2
7.461,4.5
7.462,5.1
7.463,5.3
7.464,4.7
7.465,3.6
7.466,2.4
7.467,1.6
7.468,1.6
7.469,2.3
7.47,3.3
7.471,4.1
7.472,4.4
7.473,4
7.474,3.2
7.475,2.3
7.476,1.7
7.477,1.7
7.478,2.7
7.479,4.3
7.48,6.2
7.481,7.9
7.482,9.1
7.483,9.9
7.484,10.7
7.485,11.8
7.486,13.2
7.487,14.9
7.488,16.2
7.489,16.7
7.49,16.5
7.491,15.6
7.492,14.5
7.493,13.7
7.494,13.1
7.495,12.4
7.496,11.3
7.497,9.2
7.498,6
7.499,2
7.5,-2.7
7.501,-7.5
7.502,-11.9
7.503,-15.7
7.504,-18.9
7.505,-21.6
7.506,-24.3
7.507,-27.4
7.508,-31.1
7.509,-35.401
7.51,-40.001
7.511,-44.401
7.512,-48.001
7.513,-50.601
7.514,-52.101
7.515,-52.701
7.516,-52.801
7.517,-52.501
7.518,-51.701
7.519,-50.401
7.52,-48.301
7.521,-45.401
7.522,-41.901
7.523,-37.901
7.524,-33.401
7.525,-28.8
7.526,-24.1
7.527,-19.6
7.528,-15.7
7.529,-12.6
7.53,-10.3
7.531,-8.6
7.532,-7.3
7.533,-6.1
7.534,-4.9
7.535,-3.7
7.536,-2.6
7.537,-1.5
7.538,-0.4
7.539,1
7.54,2.8
7.541,4.7
7.542,6.4
7.543,7.8
7.544,8.7
7.545,9.1
7.546,9.2
7.547,9
7.548,8.7
7.549,8
7.55,7
7.551,5.7
7.552,4.2
7.553,2.8
7.554,1.5
7.555,0.7
7.556,0.2
7.557,0.1
7.558,0.3
7.559,0.7
7.56,1.2
7.561,1.7
7.562,2.2
7.563,2.5
7.564,2.5
7.565,2.4
7.566,2.3
7.567,2.3
7.568,2.5
7.569,2.7
7.57,2.9
7.571,2.8
7.572,2.5
7.573,2.1
7.574,1.8
7.575,1.9
7.576,2.3
7.577,2.7
7.578,3.1
7.579,3.1
7.58,2.8
7.581,2.5
7.582,2.4
7.583,2.4
7.584,2.6
7.585,2.8
7.586,2.7
7.587,2.4
7.588,2.1
7.589,2
7.59,2.2
7.591,2.6
7.592,3.1
7.593,3.4
7.594,3.5
7.595,3.5
7.596,3.5
7.597,3.5
7.598,3.4
7.599,3
7.6,2.5
7.601,2.1
7.602,2.1
7.603,2.6
7.604,3.2
7.605,3.6
7.606,3.6
7.607,3.3
7.608,2.9
7.609,2.8
7.61,2.9
7.611,3
7.612,2.8
7.613,2.1
7.614,1.1
7.615,0.4
7.616,0.4
7.617,1.1
7.618,2.1
7.619,2.9
7.62,3.2
7.621,2.8
7.622,2.2
7.623,1.6
7.624,1.4
7.625,1.4
7.626,1.4
7.627,1.4
7.628,1.1
7.629,0.8
7.63,0.4
7.631,0
7.632,-0.4
7.633,-0.6
7.634,-0.5
7.635,-0.2
7.636,0.4
7.637,0.9
7.638,0.9
7.639,0.4
7.64,-0.2
7.641,-0.7
7.642,-0.5
7.643,0.4
7.644,1.8
7.645,3
7.646,3.6
7.647,3.4
7.648,2.8
7.649,2
7.65,1.7
7.651,1.8
7.652,2
7.653,1.9
7.654,1.2
7.655,0
7.656,-1.2
7.657,-1.7
7.658,-0.9
7.659,1.3
7.66,4.7
7.661,8.5
7.662,11.8
7.663,13.9
7.664,14.4
7.665,13.5
7.666,11.6
7.667,9.4
7.668,7.3
7.669,5.4
7.67,3.3
7.671,0.9
7.672,-2.1
7.673,-5.5
7.674,-8.9
7.675,-11.9
7.676,-14.3
7.677,-15.8
7.678,-16.6
7.679,-16.8
7.68,-16.4
7.681,-15.5
7.682,-14.5
7.683,-13.3
7.684,-12.2
7.685,-11.1
7.686,-10.2
7.687,-9.5
7.688,-9
7.689,-8.7
7.69,-8.6
7.691,-8.5
7.692,-8.6
7.693,-8.7
7.694,-9.1
7.695,-9.8
7.696,-10.6
7.697,-11.2
7.698,-11.3
7.699,-10.8
7.7,-9.9
7.701,-8.9
7.702,-8.3
7.703,-8.5
7.704,-9.2
7.705,-10.2
7.706,-11
7.707,-11.2
7.708,-10.9
7.709,-10.3
7.71,-9.8
7.711,-9.6
7.712,-9.8
7.713,-10.1
7.714,-10.5
7.715,-10.7
7.716,-10.7
7.717,-10.6
7.718,-10.5
7.719,-10.6
7.72,-10.9
7.721,-11.3
7.722,-11.7
7.723,-12
7.724,-12.1
7.725,-12.1
7.726,-12.1
7.727,-12.3
7.728,-12.5
7.729,-12.6
7.73,-12.5
7.731,-12.2
7.732,-11.9
7.733,-11.8
7.734,-11.7
7.735,-11.8
7.736,-11.8
7.737,-11.6
7.738,-11.2
7.739,-10.8
7.74,-10.6
7.741,-10.7
7.742,-11.3
7.743,-12.2
7.744,-13
7.745,-13.4
7.746,-13
7.747,-11.9
7.748,-10.3
7.749,-8.7
7.75,-7.7
7.751,-7.6
7.752,-8.3
7.753,-9.3
7.754,-9.9
7.755,-9.6
7.756,-8.5
7.757,-6.9
7.758,-5.2
7.759,-4.1
7.76,-3.5
7.761,-3.2
7.762,-3.1
7.763,-3
7.764,-2.9
7.765,-3
7.766,-3.5
7.767,-4.5
7.768,-5.6
7.769,-6.3
7.77,-6.4
7.771,-5.5
7.772,-4
7.773,-2.5
7.774,-1.3
7.775,-0.9
7.776,-1
7.777,-1.2
7.778,-0.8
7.779,0.2
7.78,1.8
7.781,3.2
7.782,3.9
7.783,3.8
7.784,3.1
7.785,2.5
7.786,2.3
7.787,2.9
7.788,4.1
7.789,5.2
7.79,5.9
7.791,6.1
7.792,6.1
7.793,6
7.794,6.4
7.795,7
7.796,8
7.797,8.9
7.798,9.7
7.799,10.3
7.8,10.8
7.801,11.3
7.802,11.7
7.803,12
7.804,12.4
7.805,12.7
7.806,13
7.807,13.2
7.808,13.1
7.809,12.6
7.81,11.9
7.811,11.3
7.812,10.9
7.813,11
7.814,11.5
7.815,11.9
7.816,12.2
7.817,12.2
7.818,12.1
7.819,12.2
7.82,12.4
7.821,12.7
7.822,12.7
7.823,12.2
7.824,11.4
7.825,10.6
7.826,10.2
7.827,10.2
7.828,10.6
7.829,11.1
7.83,11.2
7.831,10.9
7.832,10.2
7.833,9.5
7.834,9
7.835,8.8
7.836,8.9
7.837,9.2
7.838,9.7
7.839,10.1
7.84,10.4
7.841,10.5
7.842,10.6
7.843,10.7
7.844,10.9
7.845,11.3
7.846,11.8
7.847,12.1
7.848,12.3
7.849,12.1
7.85,11.8
7.851,11.4
7.852,11
7.853,10.8
7.854,10.9
7.855,11.1
7.856,11.4
7.857,11.5
7.858,11.3
7.859,11.1
7.86,10.9
7.861,10.8
7.862,10.8
7.863,10.9
7.864,11
7.865,11
7.866,11.3
7.867,11.9
7.868,13
7.869,14.2
7.87,15.2
7.871,15.7
7.872,15.7
7.873,15.5
7.874,15.3
7.875,15.2
7.876,15
7.877,14.4
7.878,13.2
7.879,11.7
7.88,10.3
7.881,9.5
7.882,9.3
7.883,9.7
7.884,10.1
7.885,10.3
7.886,10.4
7.887,10.6
7.888,11
7.889,11.5
7.89,11.7
7.891,11.4
7.892,10.8
7.893,10.2
7.894,9.9
7.895,10
7.896,10.1
7.897,9.9
7.898,9
7.899,7.6
7.9,6.4
7.901,5.7
7.902,5.9
7.903,6.7
7.904,7.7
7.905,8.5
7.906,9.1
7.907,9.4
7.908,9.6
7.909,9.9
7.91,10
7.911,10
7.912,9.7
7.913,9.3
7.914,9.1
7.915,9.2
7.916,9.5
7.917,9.6
7.918,9.2
7.919,8.2
7.92,7
7.921,6.2
7.922,6.1
7.923,6.9
7.924,8.2
7.925,9.4
7.926,10
7.927,9.8
7.928,9.3
7.929,8.8
7.93,8.6
7.931,8.7
7.932,8.9
7.933,9
7.934,8.8
7.935,8.8
7.936,9.1
7.937,9.8
7.938,10.7
7.939,11.4
7.94,11.6
7.941,11.3
7.942,10.7
7.943,10
7.944,9.4
7.945,8.9
7.946,8.2
7.947,7.3
7.948,6.3
7.949,5.6
7.95,5.4
7.951,5.8
7.952,6.8
7.953,7.8
7.954,8.6
7.955,8.9
7.956,8.8
7.957,8.6
7.958,8.6
7.959,8.9
7.96,9.2
7.961,9.4
7.962,9.2
7.963,8.7
7.964,8.2
7.965,8
7.966,8.3
7.967,9
7.968,9.9
7.969,10.9
7.97,12
7.971,13.4
7.972,15.1
7.973,17
7.974,18.6
7.975,19.4
7.976,19.2
7.977,18.1
7.978,16.5
7.979,14.7
7.98,13
7.981,11.5
7.982,10.3
7.983,9.4
7.984,8.9
7.985,8.7
7.986,8.7
7.987,8.9
7.988,8.9
7.989,8.6
7.99,8.2
7.991,7.7
7.992,7
7.993,6.3
7.994,5.6
7.995,5
7.996,4.7
7.997,4.7
7.998,4.8
7.999,4.9
8,4.7
8.001,4.1
8.002,3.3
8.003,2.5
8.004,2.1
8.005,1.9
8.006,2
8.007,2.2
8.008,2.2
8.009,2.2
8.01,2.2
8.011,2.1
8.012,2.1
8.013,2.1
8.014,2.1
8.015,2.3
8.016,2.6
8.017,2.9
8.018,3
8.019,3
8.02,2.7
8.021,2.4
8.022,2.1
8.023,1.9
8.024,1.7
8.025,1.4
8.026,1
8.027,0.8
8.028,0.8
8.029,1.1
8.03,1.8
8.031,2.7
8.032,3.6
8.033,4.6
8.034,5.6
8.035,6.6
8.036,7.7
8.037,8.4
8.038,8.8
8.039,8.6
8.04,7.9
8.041,7.1
8.042,6.1
8.043,5.2
8.044,4.4
8.045,4
8.046,3.9
8.047,4.5
8.048,5.5
8.049,6.6
8.05,7.4
8.051,7.5
8.052,6.9
8.053,6
8.054,5.3
8.055,5
8.056,5.1
8.057,5.2
8.058,5.1
8.059,4.6
8.06,4.1
8.061,4
8.062,4.3
8.063,5
8.064,5.6
8.065,5.8
8.066,5.8
8.067,5.8
8.068,6.3
8.069,7.3
8.07,8.7
8.071,10.2
8.072,11.5
8.073,12.5
8.074,13.1
8.075,13.4
8.076,13.3
8.077,12.9
8.078,12.1
8.079,11
8.08,10
8.081,9.1
8.082,8.3
8.083,7.5
8.084,6.7
8.085,5.9
8.086,5.3
8.087,5.1
8.088,5.2
8.089,5.5
8.09,5.9
8.091,6.2
8.092,6.5
8.093,6.8
8.094,7.1
8.095,7.3
8.096,7.3
8.097,7.2
8.098,7.1
8.099,7.2
8.1,7.7
8.101,8.9
8.102,10.7
8.103,13
8.104,15.4
8.105,17.6
8.106,19.2
8.107,19.9
8.108,19.9
8.109,19.2
8.11,18.2
8.111,17
8.112,15.5
8.113,13.5
8.114,10.6
8.115,6.8
8.116,2.5
8.117,-2
8.118,-6.2
8.119,-10
8.12,-13.6
8.121,-17
8.122,-20.4
8.123,-23.7
8.124,-26.9
8.125,-30.2
8.126,-33.601
8.127,-37.101
8.128,-40.301
8.129,-42.301
8.13,-42.501
8.131,-40.901
8.132,-38.201
8.133,-35.501
8.134,-33.801
8.135,-33.301
8.136,-33.501
8.137,-33.401
8.138,-32.5
8.139,-30.7
8.14,-28.5
8.141,-26.3
8.142,-24.3
8.143,-22.3
8.144,-20
8.145,-17.5
8.146,-15
8.147,-12.9
8.148,-11.6
8.149,-10.7
8.15,-9.7
8.151,-8.2
8.152,-6
8.153,-3.4
8.154,-1
8.155,0.9
8.156,2.1
8.157,2.7
8.158,3.2
8.159,3.6
8.16,4.1
8.161,4.6
8.162,5
8.163,5.2
8.164,5.3
8.165,5.2
8.166,5
8.167,4.7
8.168,4.3
8.169,4
8.17,4
8.171,4.4
8.172,5.3
8.173,6.4
8.174,7.5
8.175,8.3
8.176,8.7
8.177,8.8
8.178,8.8
8.179,8.9
8.18,9.2
8.181,9.5
8.182,9.5
8.183,9
8.184,8.1
8.185,7.1
8.186,6.2
8.187,5.7
8.188,5.7
8.189,5.9
8.19,5.9
8.191,5.7
8.192,5.3
8.193,4.7
8.194,4.3
8.195,4.1
8.196,3.9
8.197,3.7
8.198,3.4
8.199,3.1
8.2,3
8.201,3.2
8.202,3.7
8.203,4.4
8.204,5.2
8.205,5.7
8.206,6
8.207,6.1
8.208,6
8.209,5.9
8.21,5.7
8.211,5.5
8.212,5.3
8.213,5.1
8.214,4.9
8.215,4.7
8.216,4.7
8.217,4.7
8.218,5
8.219,5.3
8.22,5.6
8.221,5.6
8.222,5.3
8.223,4.8
8.224,4.2
8.225,3.9
8.226,4
8.227,4.5
8.228,4.9
8.229,5
8.23,4.7
8.231,4.1
8.232,3.5
8.233,3.2
8.234,3.4
8.235,3.7
8.236,4
8.237,3.9
8.238,3.5
8.239,2.9
8.24,2.6
8.241,2.7
8.242,3.3
8.243,4.2
8.244,4.9
8.245,5.2
8.246,4.8
8.247,4.1
8.248,3.3
8.249,2.8
8.25,2.7
8.251,2.8
8.252,2.9
8.253,2.8
8.254,2.5
8.255,2.3
8.256,2.3
8.257,2.5
8.258,2.8
8.259,2.9
8.26,2.5
8.261,1.8
8.262,1
8.263,0.4
8.264,0.1
8.265,0.2
8.266,0.5
8.267,0.9
8.268,1.4
8.269,2.1
8.27,3
8.271,4.1
8.272,5.1
8.273,5.8
8.274,6
8.275,5.6
8.276,4.7
8.277,3.4
8.278,2.1
8.279,0.7
8.28,-0.6
8.281,-1.6
8.282,-2.5
8.283,-3
8.284,-3
8.285,-2.6
8.286,-1.9
8.287,-1.1
8.288,-0.5
8.289,-0.6
8.29,-1.2
8.291,-2.3
8.292,-3.5
8.293,-4.4
8.294,-5
8.295,-5.2
8.296,-5.3
8.297,-5.4
8.298,-5.6
8.299,-5.8
8.3,-5.9
8.301,-5.6
8.302,-5.1
8.303,-4.5
8.304,-3.9
8.305,-3.5
8.306,-3.2
8.307,-3
8.308,-3
8.309,-3
8.31,-3.1
8.311,-3.2
8.312,-3.4
8.313,-3.5
8.314,-3.7
8.315,-3.8
8.316,-4
8.317,-4.3
8.318,-4.8
8.319,-5.5
8.32,-6.4
8.321,-7.4
8.322,-8.3
8.323,-9.2
8.324,-10
8.325,-10.8
8.326,-11.6
8.327,-12.3
8.328,-12.9
8.329,-13.4
8.33,-13.8
8.331,-14.1
8.332,-14.4
8.333,-14.7
8.334,-15
8.335,-15.2
8.336,-15.2
8.337,-15.2
8.338,-15.2
8.339,-15.2
8.34,-15.4
8.341,-15.7
8.342,-16.2
8.343,-16.7
8.344,-17.1
8.345,-17.4
8.346,-17.4
8.347,-17.2
8.348,-16.8
8.349,-16.4
8.35,-16.2
8.351,-16.2
8.352,-16.3
8.353,-16.5
8.354,-16.6
8.355,-16.5
8.356,-16.5
8.357,-16.5
8.358,-16.9
8.359,-17.5
8.36,-18.2
8.361,-18.7
8.362,-19
8.363,-18.9
8.364,-18.7
8.365,-18.5
8.366,-18.6
8.367,-18.8
8.368,-19
8.369,-18.8
8.37,-18.2
8.371,-17.1
8.372,-15.8
8.373,-14.4
8.374,-13.1
8.375,-12
8.376,-11
8.377,-10.1
8.378,-9.2
8.379,-8.4
8.38,-7.7
8.381,-7.3
8.382,-7.3
8.383,-7.8
8.384,-8.8
8.385,-9.9
8.386,-10.8
8.387,-11.2
8.388,-11
8.389,-10.4
8.39,-9.7
8.391,-9.2
8.392,-9
8.393,-8.6
8.394,-7.8
8.395,-6.4
8.396,-4.8
8.397,-3.7
8.398,-3.3
8.399,-3.9
8.4,-4.8
8.401,-5.4
8.402,-5.4
8.403,-4.7
8.404,-3.8
8.405,-3.2
8.406,-3
8.407,-3
8.408,-2.8
8.409,-2.1
8.41,-1
8.411,0.1
8.412,0.7
8.413,0.8
8.414,0.7
8.415,0.9
8.416,1.7
8.417,3
8.418,4.3
8.419,5.3
8.42,5.5
8.421,5.2
8.422,4.7
8.423,4.3
8.424,4.2
8.425,4.4
8.426,4.7
8.427,5.2
8.428,5.6
8.429,6
8.43,6.3
8.431,6.5
8.432,6.6
8.433,6.5
8.434,6.3
8.435,6.3
8.436,6.4
8.437,6.6
8.438,6.7
8.439,6.6
8.44,6.2
8.441,6
8.442,6.1
8.443,6.8
8.444,8
8.445,9.4
8.446,10.3
8.447,10.4
8.448,9.7
8.449,8.7
8.45,7.8
8.451,7.8
8.452,8.5
8.453,9.7
8.454,10.9
8.455,11.4
8.456,11.3
8.457,10.7
8.458,10
8.459,9.7
8.46,10
8.461,10.5
8.462,11.2
8.463,11.6
8.464,11.8
8.465,11.7
8.466,11.5
8.467,11.3
8.468,10.9
8.469,10.3
8.47,9.4
8.471,8.3
8.472,7.2
8.473,6.2
8.474,5.4
8.475,4.8
8.476,4.3
8.477,4
8.478,3.8
8.479,3.7
8.48,3.6
8.481,3.4
8.482,3.1
8.483,2.8
8.484,2.4
8.485,2.2
8.486,2
8.487,1.6
8.488,0.9
8.489,-0.2
8.49,-1.3
8.491,-2
8.492,-1.7
8.493,-0.3
8.494,1.7
8.495,3.5
8.496,4.4
8.497,4
8.498,2.8
8.499,1.4
8.5,0.7
8.501,0.9
8.502,1.9
8.503,2.8
8.504,3
8.505,2.4
8.506,1.3
8.507,0.3
8.508,-0.1
8.509,0.1
8.51,0.6
8.511,1
8.512,1
8.513,0.9
8.514,0.9
8.515,1.1
8.516,1.4
8.517,1.5
8.518,1.2
8.519,0.6
8.52,-0.2
8.521,-0.6
8.522,-0.5
8.523,-0.1
8.524,0.4
8.525,0.7
8.526,0.6
8.527,0.6
8.528,0.8
8.529,1.5
8.53,2.4
8.531,3.3
8.532,3.8
8.533,3.7
8.534,3.2
8.535,2.6
8.536,2.4
8.537,2.5
8.538,2.9
8.539,3.3
8.54,3.5
8.541,3.4
8.542,3.3
8.543,3.1
8.544,2.9
8.545,2.7
8.546,2.3
8.547,1.7
8.548,1.1
8.549,1.1
8.55,1.8
8.551,3.3
8.552,5.1
8.553,6.7
8.554,7.7
8.555,7.9
8.556,7.8
8.557,7.7
8.558,7.8
8.559,8.2
8.56,8.3
8.561,7.8
8.562,6.7
8.563,5
8.564,3.2
8.565,1.8
8.566,1.2
8.567,1.3
8.568,2
8.569,2.7
8.57,3
8.571,2.7
8.572,1.6
8.573,0.4
8.574,-0.7
8.575,-1
8.576,-0.7
8.577,0
8.578,0.6
8.579,0.6
8.58,0.1
8.581,-0.8
8.582,-1.5
8.583,-1.9
8.584,-2
8.585,-1.8
8.586,-1.6
8.587,-1.1
8.588,-0.4
8.589,0.8
8.59,2.1
8.591,3.3
8.592,4.2
8.593,4.9
8.594,5.9
8.595,7.8
8.596,11
8.597,15.2
8.598,19.3
8.599,22.4
8.6,23.6
8.601,22.9
8.602,20.7
8.603,18.2
8.604,15.8
8.605,14
8.606,12.5
8.607,10.7
8.608,8.3
8.609,5.5
8.61,2.5
8.611,0.1
8.612,-1.4
8.613,-1.7
8.614,-1.1
8.615,-0.2
8.616,0.6
8.617,1.1
8.618,1.2
8.619,1.5
8.62,2.2
8.621,3.5
8.622,5.1
8.623,6.4
8.624,6.9
8.625,6.7
8.626,5.9
8.627,5.1
8.628,4.9
8.629,5.4
8.63,6.1
8.631,6.6
8.632,6.2
8.633,4.9
8.634,3
8.635,1.3
8.636,0.5
8.637,0.5
8.638,1.1
8.639,1.6
8.64,1.5
8.641,0.7
8.642,-0.4
8.643,-1.3
8.644,-1.4
8.645,-0.9
8.646,0
8.647,0.9
8.648,1.7
8.649,2.2
8.65,2.5
8.651,2.8
8.652,2.6
8.653,1.9
8.654,0.5
8.655,-1.4
8.656,-3.4
8.657,-4.8
8.658,-5.4
8.659,-5.2
8.66,-4.5
8.661,-3.6
8.662,-3.1
8.663,-2.9
8.664,-3.1
8.665,-3.2
8.666,-2.9
8.667,-2.1
8.668,-1
8.669,0
8.67,0.4
8.671,0.1
8.672,-0.7
8.673,-1.3
8.674,-1.5
8.675,-1
8.676,-0.1
8.677,0.7
8.678,1.2
8.679,1.1
8.68,0.6
8.681,-0.1
8.682,-0.7
8.683,-1.1
8.684,-1.3
8.685,-1.4
8.686,-1.4
8.687,-1.5
8.688,-1.6
8.689,-1.8
8.69,-2
8.691,-2
8.692,-1.9
8.693,-1.5
8.694,-1
8.695,-0.5
8.696,-0.1
8.697,0.3
8.698,0.7
8.699,1
8.7,1.4
8.701,1.8
8.702,2.1
8.703,2.3
8.704,2.2
8.705,2.1
8.706,2
8.707,2
8.708,2.2
8.709,2.5
8.71,2.8
8.711,2.9
8.712,2.9
8.713,2.8
8.714,2.8
8.715,3
8.716,3.3
8.717,3.8
8.718,4.2
8.719,4.3
8.72,4.2
8.721,4
8.722,3.7
8.723,3.3
8.724,3
8.725,2.8
8.726,2.8
8.727,3
8.728,3.5
8.729,4
8.73,4.4
8.731,4.6
8.732,4.5
8.733,4.4
8.734,4.4
8.735,4.8
8.736,5.5
8.737,6.5
8.738,7.6
8.739,9
8.74,10.5
8.741,12.2
8.742,14.2
8.743,16.5
8.744,19
8.745,21.5
8.746,23.6
8.747,25
8.748,25.3
8.749,24.4
8.75,22.6
8.751,20.1
8.752,17.5
8.753,15.1
8.754,12.9
8.755,10.5
8.756,7.6
8.757,3.8
8.758,-0.8
8.759,-6
8.76,-11.5
8.761,-17
8.762,-22.2
8.763,-27.2
8.764,-31.9
8.765,-36.401
8.766,-40.701
8.767,-44.901
8.768,-49.001
8.769,-52.701
8.77,-55.901
8.771,-58.301
8.772,-60.001
8.773,-61.001
8.774,-61.701
8.775,-62.001
8.776,-61.901
8.777,-61.001
8.778,-59.001
8.779,-55.701
8.78,-51.401
8.781,-46.501
8.782,-41.501
8.783,-36.601
8.784,-32
8.785,-27.3
8.786,-22.4
8.787,-17.5
8.788,-13.1
8.789,-9.8
8.79,-7.9
8.791,-7.3
8.792,-7.5
8.793,-7.7
8.794,-7.2
8.795,-6
8.796,-4.2
8.797,-2.5
8.798,-1.3
8.799,-1
8.8,-1.2
8.801,-1.5
8.802,-1.5
8.803,-1
8.804,-0.4
8.805,-0.1
8.806,-0.4
8.807,-1.2
8.808,-2.1
8.809,-2.6
8.81,-2.5
8.811,-2
8.812,-1.5
8.813,-1.4
8.814,-1.8
8.815,-2.3
8.816,-2.4
8.817,-1.9
8.818,-1.1
8.819,-0.2
8.82,0.2
8.821,0.1
8.822,-0.4
8.823,-0.6
8.824,-0.4
8.825,0.1
8.826,0.6
8.827,0.7
8.828,0.6
8.829,0.3
8.83,0.3
8.831,0.7
8.832,1.4
8.833,1.9
8.834,2.1
8.835,1.9
8.836,1.7
8.837,2
8.838,2.7
8.839,3.8
8.84,4.8
8.841,5.6
8.842,6
8.843,6.3
8.844,6.7
8.845,7.1
8.846,7.3
8.847,6.7
8.848,5.4
8.849,3.6
8.85,1.8
8.851,0.6
8.852,0.3
8.853,0.6
8.854,1
8.855,1.1
8.856,0.9
8.857,0.7
8.858,0.6
8.859,0.7
8.86,1
8.861,1
8.862,0.6
8.863,0
8.864,-0.6
8.865,-1
8.866,-1.3
8.867,-1.5
8.868,-2
8.869,-2.4
8.87,-2.7
8.871,-2.4
8.872,-1.6
8.873,-0.6
8.874,0.2
8.875,0.5
8.876,0.4
8.877,0.2
8.878,0.1
8.879,0.2
8.88,0.3
8.881,0.1
8.882,-0.6
8.883,-1.5
8.884,-2.3
8.885,-2.8
8.886,-2.9
8.887,-2.8
8.888,-2.7
8.889,-2.8
8.89,-2.9
8.891,-2.9
8.892,-2.5
8.893,-1.8
8.894,-1
8.895,-0.3
8.896,0
8.897,0.1
8.898,-0.1
8.899,-0.3
8.9,-0.6
8.901,-0.9
8.902,-1
8.903,-1
8.904,-0.7
8.905,-0.2
8.906,0.5
8.907,1
8.908,1
8.909,0.6
8.91,-0.1
8.911,-1
8.912,-1.6
8.913,-2
8.914,-2
8.915,-2
8.916,-2.2
8.917,-2.7
8.918,-3.5
8.919,-4.3
8.92,-4.9
8.921,-5.1
8.922,-4.9
8.923,-4.4
8.924,-3.9
8.925,-3.6
8.926,-3.4
8.927,-3.3
8.928,-3.3
8.929,-3.2
8.93,-3.3
8.931,-3.4
8.932,-3.8
8.933,-4.2
8.934,-4.5
8.935,-4.2
8.936,-3.5
8.937,-2.3
8.938,-1
8.939,0.1
8.94,0.6
8.941,0.7
8.942,0.5
8.943,0.1
8.944,-0.4
8.945,-1.3
8.946,-2.6
8.947,-4.3
8.948,-6.1
8.949,-7.3
8.95,-7.7
8.951,-7.4
8.952,-6.7
8.953,-6.5
8.954,-7.2
8.955,-8.6
8.956,-10.3
8.957,-11.5
8.958,-11.7
8.959,-11.1
8.96,-10.2
8.961,-9.7
8.962,-10
8.963,-11
8.964,-12.3
8.965,-13.5
8.966,-14.2
8.967,-14.5
8.968,-14.8
8.969,-15.4
8.97,-16.2
8.971,-17.1
8.972,-17.8
8.973,-18.2
8.974,-18.3
8.975,-18.2
8.976,-18.3
8.977,-18.3
8.978,-18.3
8.979,-18.2
8.98,-17.9
8.981,-17.7
8.982,-17.6
8.983,-17.7
8.984,-17.9
8.985,-18.2
8.986,-18.7
8.987,-19.3
8.988,-20
8.989,-20.6
8.99,-20.9
8.991,-20.8
8.992,-20.4
8.993,-19.9
8.994,-19.5
8.995,-19.2
8.996,-19.2
8.997,-19.4
8.998,-19.7
8.999,-20.2
9,-20.7
9.001,-21.1
9.002,-21.4
9.003,-21.4
9.004,-21.3
9.005,-21.2
9.006,-21
9.007,-20.8
9.008,-20.5
9.009,-20.2
9.01,-19.9
9.011,-19.8
9.012,-20
9.013,-20.5
9.014,-20.8
9.015,-20.6
9.016,-19.8
9.017,-18.4
9.018,-17
9.019,-16
9.02,-15.5
9.021,-15.2
9.022,-14.7
9.023,-13.6
9.024,-12.2
9.025,-10.9
9.026,-10.2
9.027,-10.4
9.028,-11.1
9.029,-11.8
9.03,-11.7
9.031,-10.4
9.032,-8.2
9.033,-5.8
9.034,-3.9
9.035,-3
9.036,-2.7
9.037,-2.8
9.038,-2.5
9.039,-1.7
9.04,-0.8
9.041,-0.4
9.042,-0.9
9.043,-2.5
9.044,-4.5
9.045,-6.4
9.046,-7.3
9.047,-7.1
9.048,-6.1
9.049,-4.8
9.05,-3.7
9.051,-3
9.052,-2.7
9.053,-2.6
9.054,-2.4
9.055,-2.2
9.056,-1.9
9.057,-1.4
9.058,-0.5
9.059,1.1
9.06,3.6
9.061,6.9
9.062,10.7
9.063,14.2
9.064,16.9
9.065,18.3
9.066,18.2
9.067,17
9.068,15.1
9.069,12.7
9.07,10.3
9.071,8
9.072,5.7
9.073,3.6
9.074,1.4
9.075,-0.5
9.076,-2.1
9.077,-3.2
9.078,-3.7
9.079,-3.8
9.08,-3.6
9.081,-3.3
9.082,-2.8
9.083,-2.4
9.084,-1.8
9.085,-1.2
9.086,-0.3
9.087,0.6
9.088,1.7
9.089,2.8
9.09,3.9
9.091,4.9
9.092,5.5
9.093,5.7
9.094,5.6
9.095,5.4
9.096,5.4
9.097,5.5
9.098,5.7
9.099,5.6
9.1,5.2
9.101,4.5
9.102,3.9
9.103,3.5
9.104,3.6
9.105,3.9
9.106,4.3
9.107,4.6
9.108,4.9
9.109,5.1
9.11,5.5
9.111,5.8
9.112,6
9.113,5.8
9.114,5.4
9.115,5
9.116,4.8
9.117,5.2
9.118,6.1
9.119,7.2
9.12,8.2
9.121,8.8
9.122,8.9
9.123,8.6
9.124,8.3
9.125,8
9.126,7.8
9.127,7.6
9.128,7.3
9.129,6.8
9.13,6.2
9.131,5.8
9.132,5.6
9.133,5.5
9.134,5.6
9.135,5.6
9.136,5.4
9.137,5.2
9.138,5.3
9.139,5.8
9.14,6.7
9.141,7.8
9.142,8.9
9.143,9.5
9.144,9.4
9.145,8.7
9.146,7.6
9.147,6.4
9.148,5.4
9.149,4.7
9.15,4
9.151,3.4
9.152,2.8
9.153,2.4
9.154,2.6
9.155,3.3
9.156,4.5
9.157,5.6
9.158,6.2
9.159,6.1
9.16,5.4
9.161,4.6
9.162,4.3
9.163,4.6
9.164,5.3
9.165,5.8
9.166,5.9
9.167,5.4
9.168,4.6
9.169,3.8
9.17,3.2
9.171,3
9.172,3
9.173,3.3
9.174,3.7
9.175,4.1
9.176,4.3
9.177,4
9.178,3.5
9.179,3
9.18,3
9.181,3.5
9.182,4.5
9.183,5.5
9.184,6.1
9.185,6
9.186,5.5
9.187,5
9.188,5
9.189,5.5
9.19,6.3
9.191,6.9
9.192,7.1
9.193,7.1
9.194,6.8
9.195,6.6
9.196,6.4
9.197,6.2
9.198,5.9
9.199,5.5
9.2,5.1
9.201,4.9
9.202,4.9
9.203,5.1
9.204,5.4
9.205,5.8
9.206,6
9.207,6
9.208,6
9.209,6
9.21,6
9.211,6.1
9.212,6
9.213,5.7
9.214,5.2
9.215,4.4
9.216,3.8
9.217,3.6
9.218,3.7
9.219,4
9.22,4
9.221,3.6
9.222,2.8
9.223,2.2
9.224,1.9
9.225,2.2
9.226,2.8
9.227,3.4
9.228,3.6
9.229,3.5
9.23,3.2
9.231,2.9
9.232,2.9
9.233,3.2
9.234,3.6
9.235,4.1
9.236,4.7
9.237,5.4
9.238,5.9
9.239,6.2
9.24,6.1
9.241,5.6
9.242,4.9
9.243,4.3
9.244,4.1
9.245,4.5
9.246,5.5
9.247,6.8
9.248,8.1
9.249,9.1
9.25,9.6
9.251,9.9
9.252,10.2
9.253,10.6
9.254,11
9.255,11.3
9.256,11
9.257,10
9.258,8.4
9.259,6.6
9.26,5.1
9.261,4.3
9.262,4.2
9.263,4.6
9.264,5.2
9.265,5.4
9.266,5.3
9.267,4.8
9.268,4.2
9.269,3.9
9.27,3.9
9.271,4
9.272,4
9.273,3.6
9.274,2.9
9.275,2.3
9.276,2.1
9.277,2.6
9.278,3.7
9.279,4.8
9.28,5.2
9.281,4.9
9.282,4
9.283,3.1
9.284,3
9.285,3.6
9.286,4.8
9.287,5.9
9.288,6.2
9.289,5.7
9.29,4.7
9.291,4
9.292,3.8
9.293,4.5
9.294,5.5
9.295,6.3
9.296,6.5
9.297,5.9
9.298,5
9.299,4
9.3,3.5
9.301,3.6
9.302,4.1
9.303,4.8
9.304,5.3
9.305,5.4
9.306,5.1
9.307,4.3
9.308,3.2
9.309,2.1
9.31,1.1
9.311,0.7
9.312,0.9
9.313,1.6
9.314,2.4
9.315,2.9
9.316,3
9.317,2.7
9.318,2.5
9.319,2.7
9.32,3.3
9.321,4.3
9.322,5.2
9.323,5.8
9.324,5.8
9.325,5.5
9.326,5
9.327,4.5
9.328,4.2
9.329,4
9.33,4
9.331,3.9
9.332,3.9
9.333,4
9.334,4.3
9.335,4.7
9.336,5.2
9.337,5.8
9.338,6
9.339,5.7
9.34,5
9.341,4
9.342,2.9
9.343,2.3
9.344,2
9.345,2.2
9.346,2.5
9.347,2.8
9.348,2.9
9.349,2.9
9.35,2.8
9.351,2.6
9.352,2.4
9.353,2.2
9.354,2.1
9.355,2.1
9.356,2.4
9.357,3.2
9.358,4.3
9.359,5.6
9.36,6.7
9.361,7
9.362,6.6
9.363,5.7
9.364,4.8
9.365,4.6
9.366,5.2
9.367,6.2
9.368,6.9
9.369,6.8
9.37,6
9.371,4.7
9.372,3.8
9.373,3.6
9.374,3.9
9.375,4.3
9.376,4.3
9.377,3.6
9.378,2.7
9.379,2
9.38,1.8
9.381,1.9
9.382,2.2
9.383,2.4
9.384,2.5
9.385,2.9
9.386,3.5
9.387,4.2
9.388,4.6
9.389,4.3
9.39,3.5
9.391,2.5
9.392,2
9.393,2.2
9.394,3
9.395,3.8
9.396,4.2
9.397,4.2
9.398,4
9.399,4.1
9.4,4.5
9.401,5.1
9.402,5.4
9.403,5.1
9.404,4.2
9.405,3
9.406,2
9.407,1.7
9.408,2.4
9.409,3.9
9.41,6
9.411,8.1
9.412,10
9.413,11.5
9.414,12.6
9.415,13.7
9.416,15.1
9.417,16.8
9.418,18.6
9.419,19.9
9.42,20.5
9.421,20.1
9.422,18.9
9.423,17.2
9.424,15.6
9.425,14
9.426,12.3
9.427,10.1
9.428,6.7
9.429,2.1
9.43,-3.4
9.431,-9.2
9.432,-14.7
9.433,-19.6
9.434,-23.9
9.435,-28
9.436,-32.6
9.437,-37.801
9.438,-43.301
9.439,-48.601
9.44,-53.101
9.441,-56.301
9.442,-58.301
9.443,-59.301
9.444,-59.901
9.445,-60.401
9.446,-60.601
9.447,-60.501
9.448,-59.601
9.449,-57.801
9.45,-55.201
9.451,-51.801
9.452,-47.701
9.453,-43.201
9.454,-38.201
9.455,-33.001
9.456,-27.6
9.457,-22.4
9.458,-17.8
9.459,-14.2
9.46,-11.6
9.461,-10
9.462,-8.8
9.463,-7.4
9.464,-5.5
9.465,-3.2
9.466,-0.7
9.467,1.4
9.468,2.6
9.469,3.1
9.47,3
9.471,2.8
9.472,2.6
9.473,2.4
9.474,2
9.475,1.3
9.476,0.3
9.477,-0.7
9.478,-1.4
9.479,-1.5
9.48,-1.2
9.481,-0.7
9.482,-0.2
9.483,0.2
9.484,0.4
9.485,0.6
9.486,0.6
9.487,0.5
9.488,0.3
9.489,0.1
9.49,0.2
9.491,0.6
9.492,1.3
9.493,2.3
9.494,3
9.495,3.2
9.496,2.9
9.497,2.3
9.498,1.8
9.499,1.7
9.5,2.2
9.501,3.1
9.502,4
9.503,4.6
9.504,4.9
9.505,4.9
9.506,4.7
9.507,4.6
9.508,4.5
9.509,4.4
9.51,4.2
9.511,3.6
9.512,2.5
9.513,1
9.514,-0.4
9.515,-1.5
9.516,-1.7
9.517,-0.9
9.518,0.6
9.519,2.3
9.52,3.4
9.521,3.7
9.522,3.2
9.523,2.5
9.524,2.6
9.525,4.3
9.526,7.7
9.527,12.3
9.528,16.9
9.529,20.3
9.53,21.6
9.531,20.7
9.532,18.2
9.533,15.2
9.534,12.5
9.535,10.5
9.536,9.1
9.537,7.8
9.538,5.9
9.539,3.5
9.54,0.7
9.541,-1.9
9.542,-3.9
9.543,-5.1
9.544,-5.7
9.545,-5.9
9.546,-5.8
9.547,-5.4
9.548,-4.7
9.549,-3.6
9.55,-2.5
9.551,-1.8
9.552,-1.6
9.553,-1.8
9.554,-2
9.555,-1.7
9.556,-0.7
9.557,0.9
9.558,2.6
9.559,3.8
9.56,4.3
9.561,3.9
9.562,3
9.563,1.9
9.564,1.1
9.565,0.6
9.566,0.5
9.567,0.6
9.568,0.9
9.569,1.3
9.57,1.5
9.571,1.5
9.572,1.3
9.573,0.8
9.574,0.4
9.575,0
9.576,0
9.577,0.3
9.578,1
9.579,2
9.58,3.1
9.581,4.2
9.582,5.2
9.583,5.8
9.584,6.1
9.585,6
9.586,5.6
9.587,4.9
9.588,4
9.589,2.8
9.59,1.6
9.591,0.3
9.592,-0.8
9.593,-1.7
9.594,-2.4
9.595,-2.8
9.596,-3
9.597,-3.2
9.598,-3.4
9.599,-3.4
9.6,-3.4
9.601,-3.2
9.602,-3
9.603,-2.8
9.604,-2.7
9.605,-3
9.606,-3.6
9.607,-4.5
9.608,-5.6
9.609,-6.6
9.61,-7.3
9.611,-7.5
9.612,-7.1
9.613,-6.4
9.614,-5.5
9.615,-5
9.616,-5.1
9.617,-5.7
9.618,-6.8
9.619,-8
9.62,-8.9
9.621,-9.4
9.622,-9.5
9.623,-9.3
9.624,-9.1
9.625,-9.2
9.626,-9.5
9.627,-10
9.628,-10.6
9.629,-11
9.63,-11.2
9.631,-11.2
9.632,-11.4
9.633,-11.8
9.634,-12.4
9.635,-13.1
9.636,-13.7
9.637,-13.9
9.638,-13.4
9.639,-12.5
9.64,-11.2
9.641,-10.2
9.642,-9.5
9.643,-9.6
9.644,-10.3
9.645,-11.4
9.646,-12.4
9.647,-13.2
9.648,-13.4
9.649,-13
9.65,-12.4
9.651,-11.8
9.652,-11.6
9.653,-11.8
9.654,-12.4
9.655,-13.2
9.656,-13.9
9.657,-14.5
9.658,-14.8
9.659,-15
9.66,-15.3
9.661,-15.6
9.662,-16
9.663,-16.2
9.664,-16.1
9.665,-15.9
9.666,-15.6
9.667,-15.2
9.668,-15
9.669,-14.9
9.67,-14.7
9.671,-14.5
9.672,-14.3
9.673,-14.2
9.674,-14.2
9.675,-14.4
9.676,-14.7
9.677,-14.9
9.678,-14.8
9.679,-14.7
9.68,-14.6
9.681,-14.7
9.682,-14.8
9.683,-14.8
9.684,-14.5
9.685,-13.8
9.686,-13.1
9.687,-12.7
9.688,-12.7
9.689,-13.1
9.69,-13.5
9.691,-13.2
9.692,-12.3
9.693,-10.8
9.694,-9.4
9.695,-8.5
9.696,-8.4
9.697,-8.5
9.698,-8.5
9.699,-7.9
9.7,-6.7
9.701,-5.6
9.702,-5.1
9.703,-5.7
9.704,-7
9.705,-8.3
9.706,-8.9
9.707,-8.3
9.708,-6.7
9.709,-5
9.71,-3.8
9.711,-3.5
9.712,-4
9.713,-4.9
9.714,-5.7
9.715,-6
9.716,-5.9
9.717,-5.6
9.718,-5.1
9.719,-4.7
9.72,-4.2
9.721,-3.6
9.722,-3
9.723,-2.5
9.724,-2.2
9.725,-2.1
9.726,-2.1
9.727,-2
9.728,-1.7
9.729,-1.3
9.73,-0.6
9.731,0.2
9.732,1.1
9.733,1.8
9.734,2.4
9.735,2.8
9.736,3
9.737,2.9
9.738,2.8
9.739,2.7
9.74,2.7
9.741,2.7
9.742,2.7
9.743,2.5
9.744,2.3
9.745,2
9.746,2
9.747,2.3
9.748,2.8
9.749,3.6
9.75,4.2
9.751,4.8
9.752,5.1
9.753,5.4
9.754,5.6
9.755,5.6
9.756,5.5
9.757,5.2
9.758,4.5
9.759,3.7
9.76,2.9
9.761,2.4
9.762,2.2
9.763,2.5
9.764,3.1
9.765,3.8
9.766,4.4
9.767,4.7
9.768,4.5
9.769,4.2
9.77,3.9
9.771,3.8
9.772,4.2
9.773,4.8
9.774,5.4
9.775,5.6
9.776,5.5
9.777,5.1
9.778,4.8
9.779,4.7
9.78,4.9
9.781,5.1
9.782,5.2
9.783,5
9.784,4.7
9.785,4.4
9.786,4.2
9.787,4.2
9.788,4.2
9.789,4.2
9.79,4.2
9.791,4.1
9.792,4
9.793,4
9.794,4
9.795,3.9
9.796,3.9
9.797,3.9
9.798,4.2
9.799,4.6
9.8,5.2
9.801,5.5
9.802,5.6
9.803,5.4
9.804,4.9
9.805,4.5
9.806,4.4
9.807,4.7
9.808,5.3
9.809,6.2
9.81,7.3
9.811,8.3
9.812,9.2
9.813,9.8
9.814,9.9
9.815,9.6
9.816,8.6
9.817,7.3
9.818,6
9.819,4.9
9.82,4.4
9.821,4.5
9.822,4.9
9.823,5.3
9.824,5.4
9.825,5.2
9.826,4.9
9.827,5
9.828,5.4
9.829,6.1
9.83,6.7
9.831,6.8
9.832,6.2
9.833,5.3
9.834,4.2
9.835,3.4
9.836,2.9
9.837,2.7
9.838,2.7
9.839,2.9
9.84,3.3
9.841,3.9
9.842,4.5
9.843,5.1
9.844,5.3
9.845,5
9.846,4.4
9.847,3.7
9.848,3.4
9.849,3.5
9.85,4
9.851,4.6
9.852,5.1
9.853,5.4
9.854,5.5
9.855,5.4
9.856,5.3
9.857,5.4
9.858,5.7
9.859,6.1
9.86,6.7
9.861,7.4
9.862,8.2
9.863,9.2
9.864,10.1
9.865,10.7
9.866,10.6
9.867,9.9
9.868,8.9
9.869,7.8
9.87,7
9.871,6.8
9.872,6.8
9.873,6.7
9.874,6.3
9.875,5.5
9.876,4.7
9.877,4.3
9.878,4.3
9.879,4.8
9.88,5.3
9.881,5.6
9.882,5.3
9.883,4.6
9.884,3.7
9.885,2.8
9.886,1.9
9.887,1.2
9.888,0.6
9.889,0.3
9.89,0.3
9.891,0.6
9.892,1.1
9.893,1.5
9.894,1.7
9.895,1.7
9.896,1.7
9.897,1.7
9.898,1.9
9.899,2.3
9.9,2.6
9.901,2.7
9.902,2.5
9.903,2.3
9.904,2.5
9.905,3.4
9.906,4.8
9.907,6.5
9.908,8.1
9.909,9.1
9.91,9.5
9.911,9.5
9.912,9.3
9.913,9.2
9.914,9.1
9.915,8.9
9.916,8.4
9.917,7.6
9.918,6.7
9.919,5.8
9.92,5.1
9.921,4.7
9.922,4.7
9.923,4.9
9.924,5.4
9.925,5.8
9.926,6.1
9.927,5.9
9.928,5.3
9.929,4.4
9.93,3.6
9.931,3.2
9.932,3.1
9.933,3.4
9.934,3.5
9.935,3.4
9.936,2.9
9.937,2.5
9.938,2.2
9.939,2.5
9.94,3.1
9.941,3.8
9.942,4.4
9.943,4.5
9.944,4.2
9.945,3.5
9.946,2.7
9.947,1.9
9.948,1.4
9.949,1.3
9.95,1.6
9.951,2.1
9.952,2.7
9.953,3.1
9.954,3.2
9.955,3
9.956,2.8
9.957,2.9
9.958,3.4
9.959,4.1
9.96,4.8
9.961,5.1
9.962,4.8
9.963,4
9.964,3.1
9.965,2.6
9.966,2.6
9.967,3
9.968,3.5
9.969,3.6
9.97,3.1
9.971,2
9.972,0.9
9.973,0
9.974,-0.4
9.975,-0.2
9.976,0.3
9.977,1
9.978,1.4
9.979,1.6
9.98,1.5
9.981,1.1
9.982,0.5
9.983,0.1
9.984,0.1
9.985,0.7
9.986,1.7
9.987,3.1
9.988,4.4
9.989,5.7
9.99,7.1
9.991,8.9
9.992,11.6
9.993,15.2
9.994,19.4
9.995,23.1
9.996,25.5
9.997,26
9.998,24.6
9.999,21.9
